{
  "AcquisitionMatrixPE": 104,
  "AcquisitionNumber": 1,
  "AcquisitionTime": "18:15:42.295000",
  "BandwidthPerPixelPhaseEncode": 17.17,
  "BaseResolution": 104,
  "BodyPartExamined": "BRAIN",
  "CoilCombinationMethod": "Sum of Squares",
  "ConsistencyInfo": "N4_VE11C_LATEST_20160120",
  "ConversionSoftware": "dcm2niix",
  "ConversionSoftwareVersion": "v1.0.20211006",
  "DerivedVendorReportedEchoSpacing": 0.000560011,
  "DeviceSerialNumber": "167006",
  "DwellTime": 2.1e-06,
  "EchoTime": 0.037,
  "EchoTime1": 0.037,
  "EchoTime2": 0.001,
  "EchoTrainLength": 104,
  "EffectiveEchoSpacing": 0.000560011,
  "FlipAngle": 52,
  "HeudiconvVersion": "0.10.0",
  "ImageComments": "Unaliased MB4/PE3/LB",
  "ImageOrientationPatientDICOM": [0.997524, 0.0615639, 0.0339844, -0.048089, 0.949815, -0.309094],
  "ImageOrientationText": "Tra>Cor(-17.9)>Sag(2.9)",
  "ImageType": [
    "ORIGINAL",
    "PRIMARY",
    "P",
    "MB",
    "ND",
    "MOSAIC",
    "PHASE"
],
  "ImagingFrequency": 123.259,
  "InPlanePhaseEncodingDirectionDICOM": "COL",
  "InstitutionAddress": "Chemin Queen-Mary 4565,Montreal,District,CA,H3W 1W5",
  "InstitutionName": "IUGM",
  "InstitutionalDepartmentName": "Department",
  "MRAcquisitionType": "2D",
  "MagneticFieldStrength": 3,
  "Manufacturer": "Siemens",
  "ManufacturersModelName": "Prisma_fit",
  "MatrixCoilMode": "SENSE",
  "Modality": "MR",
  "MultibandAccelerationFactor": 4,
  "PartialFourier": 1,
  "PatientPosition": "HFS",
  "PercentPhaseFOV": 100,
  "PercentSampling": 100,
  "PhaseEncodingDirection": "j",
  "PhaseEncodingSteps": 104,
  "PhaseResolution": 1,
  "PixelBandwidth": 2290,
  "ProcedureStepDescription": "localizers^fLoc",
  "ProtocolName": "task_fLoc_run-2",
  "PulseSequenceDetails": "%CustomerSeq%\\cmrr_mbep2d_bold",
  "ReceiveCoilActiveElements": "HC1-7;NC1,2",
  "ReceiveCoilName": "HeadNeck_64",
  "ReconMatrixPE": 104,
  "RepetitionTime": 1.49,
  "SAR": 0.0450439,
  "ScanOptions": "FS",
  "ScanningSequence": "EP",
  "SequenceName": "epfid2d1_104",
  "SequenceVariant": "SK\\SS",
  "SeriesDescription": "task_fLoc_run-2",
  "SeriesNumber": 14,
  "ShimSetting": [627, -7187, -8820, 637, 70, 36, -48, -6],
  "SliceThickness": 2,
  "SliceTiming": [0, 0.7825, 0.0975, 0.8825, 0.195, 0.98, 0.2925, 1.0775, 0.3925, 1.175, 0.49, 1.2725, 0.5875, 1.37, 0.685, 0, 0.7825, 0.0975, 0.8825, 0.195, 0.98, 0.2925, 1.0775, 0.3925, 1.175, 0.49, 1.2725, 0.5875, 1.37, 0.685, 0, 0.7825, 0.0975, 0.8825, 0.195, 0.98, 0.2925, 1.0775, 0.3925, 1.175, 0.49, 1.2725, 0.5875, 1.37, 0.685, 0, 0.7825, 0.0975, 0.8825, 0.195, 0.98, 0.2925, 1.0775, 0.3925, 1.175, 0.49, 1.2725, 0.5875, 1.37, 0.685],
  "SoftwareVersions": "syngo MR E11",
  "SpacingBetweenSlices": 2,
  "StationName": "MRC35049",
  "TaskName": "fLoc",
  "TotalReadoutTime": 0.0576811,
  "TxRefAmp": 262.277,
  "WipMemBlock": "eaf796f7-aa6e-41bc-b81a-f32664093db5||Sequence: R016 ve11c/master r/e634e98; Dec 19 2017 11:00:25 by eja",
  "dcmmeta_affine": [
    [-1.9950487613677979, -0.0961780697107315, 0.10261587798595428, 108.69108581542969],
    [-0.12312787026166916, 1.899630069732666, -0.6133880615234375, -57.03122329711914],
    [0.06796886771917343, 0.6181870102882385, 1.9008485078811646, -58.53779602050781],
    [0.0, 0.0, 0.0, 1.0]
],
  "dcmmeta_reorient_transform": [
    [0.0, -1.0, 0.0, 103.0],
    [1.0, 0.0, 0.0, 0.0],
    [0.0, 0.0, 1.0, 0.0],
    [0.0, 0.0, 0.0, 1.0]
],
  "dcmmeta_shape": [104, 104, 60, 155],
  "dcmmeta_slice_dim": 2,
  "dcmmeta_version": 0.6,
  "global": {
    "const": {
      "AcquisitionMatrix": [104, 0, 0, 104],
      "AngioFlag": "N",
      "BitsAllocated": 16,
      "BitsStored": 16,
      "BodyPartExamined": "BRAIN",
      "Columns": 832,
      "EchoNumbers": 1,
      "EchoTime": 37.0,
      "EchoTrainLength": 104,
      "FlipAngle": 52.0,
      "HighBit": 15,
      "ImageOrientationPatient": [0.99752440588263, 0.06156393437933, 0.03398443249862, -0.0480890338697, 0.94981506222082, -0.3090935010639],
      "ImagePositionPatient": [-789.97369225311, -874.91459079632, 205.41486537712],
      "ImageType": [
        "ORIGINAL",
        "PRIMARY",
        "P",
        "MB",
        "ND",
        "MOSAIC"
],
      "ImagedNucleus": "1H",
      "ImagingFrequency": 123.258913,
      "InPlanePhaseEncodingDirection": "COL",
      "LargestImagePixelValue": 4095,
      "MRAcquisitionType": "2D",
      "MagneticFieldStrength": 3.0,
      "Manufacturer": "SIEMENS",
      "ManufacturerModelName": "Prisma_fit",
      "Modality": "MR",
      "NumberOfAverages": 1.0,
      "NumberOfPhaseEncodingSteps": 104,
      "PercentPhaseFieldOfView": 100.0,
      "PercentSampling": 100.0,
      "PerformedProcedureStepStartTime": "180649.909000",
      "PhotometricInterpretation": "MONOCHROME2",
      "PixelBandwidth": 2290.0,
      "PixelRepresentation": 0,
      "PixelSpacing": [2.0, 2.0],
      "ProtocolName": "task_fLoc_run-2",
      "RepetitionTime": 1490.0,
      "RescaleIntercept": -4096.0,
      "RescaleSlope": 2.0,
      "RescaleType": "US",
      "Rows": 832,
      "SAR": 0.04504385376461,
      "SamplesPerPixel": 1,
      "ScanOptions": "FS",
      "ScanningSequence": "EP",
      "SequenceName": "epfid2d1_104",
      "SequenceVariant": [
        "SK",
        "SS"
],
      "SeriesDescription": "task_fLoc_run-2",
      "SeriesNumber": 14,
      "SeriesTime": "181715.061000",
      "SliceLocation": -32.567892249697,
      "SliceThickness": 2.0,
      "SmallestImagePixelValue": 0,
      "SoftwareVersions": "syngo MR E11",
      "SpacingBetweenSlices": 2.0000000532091,
      "SpecificCharacterSet": "ISO_IR 100",
      "StudyID": "1",
      "StudyTime": "180649.830000",
      "TransmitCoilName": "Body",
      "VariableFlipAngleFlag": "N",
      "WindowCenterWidthExplanation": "Algo1",
      "dBdt": 0.0},
    "slices": {}
  },
  "time": {
    "samples": {
      "AcquisitionNumber": [1, 2, 3, 4, 5, 6, 7, 8, 9, 10, 11, 12, 13, 14, 15, 16, 17, 18, 19, 20, 21, 22, 23, 24, 25, 26, 27, 28, 29, 30, 31, 32, 33, 34, 35, 36, 37, 38, 39, 40, 41, 42, 43, 44, 45, 46, 47, 48, 49, 50, 51, 52, 53, 54, 55, 56, 57, 58, 59, 60, 61, 62, 63, 64, 65, 66, 67, 68, 69, 70, 71, 72, 73, 74, 75, 76, 77, 78, 79, 80, 81, 82, 83, 84, 85, 86, 87, 88, 89, 90, 91, 92, 93, 94, 95, 96, 97, 98, 99, 100, 101, 102, 103, 104, 105, 106, 107, 108, 109, 110, 111, 112, 113, 114, 115, 116, 117, 118, 119, 120, 121, 122, 123, 124, 125, 126, 127, 128, 129, 130, 131, 132, 133, 134, 135, 136, 137, 138, 139, 140, 141, 142, 143, 144, 145, 146, 147, 148, 149, 150, 151, 152, 153, 154, 155],
      "AcquisitionTime": ["181542.295000", "181543.785000", "181545.275000", "181546.765000", "181548.255000", "181549.745000", "181551.235000", "181552.725000", "181554.215000", "181555.705000", "181557.195000", "181558.685000", "181600.175000", "181601.665000", "181603.155000", "181604.645000", "181606.135000", "181607.625000", "181609.115000", "181610.605000", "181612.095000", "181613.585000", "181615.075000", "181616.565000", "181618.055000", "181619.545000", "181621.035000", "181622.525000", "181624.015000", "181625.505000", "181626.995000", "181628.485000", "181629.975000", "181631.465000", "181632.955000", "181634.445000", "181635.935000", "181637.425000", "181638.915000", "181640.405000", "181641.895000", "181643.385000", "181644.875000", "181646.365000", "181647.855000", "181649.345000", "181650.835000", "181652.325000", "181653.815000", "181655.305000", "181656.795000", "181658.285000", "181659.775000", "181701.265000", "181702.755000", "181704.245000", "181705.735000", "181707.225000", "181708.715000", "181710.205000", "181711.695000", "181713.185000", "181714.675000", "181716.165000", "181717.655000", "181719.145000", "181720.635000", "181722.125000", "181723.615000", "181725.105000", "181726.595000", "181728.085000", "181729.575000", "181731.065000", "181732.555000", "181734.045000", "181735.535000", "181737.025000", "181738.515000", "181740.005000", "181741.495000", "181742.985000", "181744.475000", "181745.965000", "181747.455000", "181748.945000", "181750.435000", "181751.925000", "181753.415000", "181754.905000", "181756.395000", "181757.885000", "181759.375000", "181800.865000", "181802.355000", "181803.845000", "181805.335000", "181806.825000", "181808.315000", "181809.805000", "181811.295000", "181812.785000", "181814.275000", "181815.765000", "181817.255000", "181818.745000", "181820.235000", "181821.725000", "181823.215000", "181824.705000", "181826.195000", "181827.685000", "181829.175000", "181830.665000", "181832.155000", "181833.645000", "181835.135000", "181836.625000", "181838.115000", "181839.605000", "181841.095000", "181842.585000", "181844.075000", "181845.565000", "181847.055000", "181848.545000", "181850.035000", "181851.525000", "181853.015000", "181854.505000", "181855.995000", "181857.485000", "181858.975000", "181900.465000", "181901.955000", "181903.445000", "181904.935000", "181906.425000", "181907.915000", "181909.405000", "181910.895000", "181912.385000", "181913.875000", "181915.365000", "181916.855000", "181918.345000", "181919.835000", "181921.325000", "181922.815000", "181924.305000", "181925.795000", "181927.285000", "181928.775000", "181930.265000", "181931.755000"],
      "ContentTime": ["181715.063000", "181715.066000", "181715.069000", "181715.071000", "181715.074000", "181715.076000", "181715.079000", "181715.081000", "181715.084000", "181715.086000", "181715.089000", "181715.091000", "181715.094000", "181715.096000", "181715.099000", "181715.101000", "181715.103000", "181715.106000", "181715.109000", "181715.111000", "181715.113000", "181715.116000", "181715.118000", "181715.121000", "181715.123000", "181715.126000", "181715.128000", "181715.131000", "181715.133000", "181715.136000", "181715.138000", "181715.141000", "181715.143000", "181715.146000", "181715.148000", "181715.151000", "181715.153000", "181715.155000", "181734.957000", "181734.960000", "181734.962000", "181734.965000", "181734.967000", "181734.970000", "181734.972000", "181734.975000", "181734.977000", "181734.979000", "181734.982000", "181734.984000", "181734.987000", "181734.989000", "181734.992000", "181734.994000", "181734.997000", "181735.000000", "181735.002000", "181735.005000", "181735.008000", "181754.950000", "181754.953000", "181754.956000", "181754.958000", "181754.961000", "181754.963000", "181754.965000", "181754.968000", "181754.970000", "181754.973000", "181754.975000", "181754.978000", "181754.980000", "181754.982000", "181754.985000", "181754.987000", "181754.990000", "181754.992000", "181754.995000", "181754.997000", "181814.962000", "181814.964000", "181814.967000", "181814.969000", "181814.972000", "181814.974000", "181814.977000", "181814.979000", "181814.981000", "181814.984000", "181814.986000", "181814.989000", "181814.991000", "181814.994000", "181814.996000", "181815.000000", "181815.002000", "181815.004000", "181815.007000", "181815.009000", "181854.981000", "181854.984000", "181854.986000", "181854.989000", "181854.991000", "181854.993000", "181854.996000", "181854.998000", "181855.002000", "181855.004000", "181855.007000", "181855.009000", "181855.012000", "181855.014000", "181855.017000", "181855.019000", "181855.021000", "181855.024000", "181855.026000", "181855.029000", "181855.031000", "181855.034000", "181855.036000", "181855.041000", "181855.044000", "181855.046000", "181855.049000", "181855.051000", "181855.054000", "181934.378000", "181934.381000", "181934.383000", "181934.386000", "181934.389000", "181934.391000", "181934.394000", "181934.396000", "181934.398000", "181934.401000", "181934.403000", "181934.406000", "181934.408000", "181934.411000", "181934.413000", "181934.416000", "181934.418000", "181934.421000", "181934.423000", "181934.425000", "181934.428000", "181934.430000", "181934.433000", "181934.435000", "181934.438000", "181934.440000", "181934.443000"],
      "InstanceCreationTime": ["181715.063000", "181715.066000", "181715.069000", "181715.071000", "181715.074000", "181715.076000", "181715.079000", "181715.081000", "181715.084000", "181715.086000", "181715.089000", "181715.091000", "181715.094000", "181715.096000", "181715.099000", "181715.101000", "181715.103000", "181715.106000", "181715.109000", "181715.111000", "181715.113000", "181715.116000", "181715.118000", "181715.121000", "181715.123000", "181715.126000", "181715.128000", "181715.131000", "181715.133000", "181715.136000", "181715.138000", "181715.141000", "181715.143000", "181715.146000", "181715.148000", "181715.151000", "181715.153000", "181715.155000", "181734.957000", "181734.960000", "181734.962000", "181734.965000", "181734.967000", "181734.970000", "181734.972000", "181734.975000", "181734.977000", "181734.979000", "181734.982000", "181734.984000", "181734.987000", "181734.989000", "181734.992000", "181734.994000", "181734.997000", "181735.000000", "181735.002000", "181735.005000", "181735.008000", "181754.950000", "181754.953000", "181754.956000", "181754.958000", "181754.961000", "181754.963000", "181754.965000", "181754.968000", "181754.970000", "181754.973000", "181754.975000", "181754.978000", "181754.980000", "181754.982000", "181754.985000", "181754.987000", "181754.990000", "181754.992000", "181754.995000", "181754.997000", "181814.962000", "181814.964000", "181814.967000", "181814.969000", "181814.972000", "181814.974000", "181814.977000", "181814.979000", "181814.981000", "181814.984000", "181814.986000", "181814.989000", "181814.991000", "181814.994000", "181814.996000", "181815.000000", "181815.002000", "181815.004000", "181815.007000", "181815.009000", "181854.981000", "181854.984000", "181854.986000", "181854.989000", "181854.991000", "181854.993000", "181854.996000", "181854.998000", "181855.002000", "181855.004000", "181855.007000", "181855.009000", "181855.012000", "181855.014000", "181855.017000", "181855.019000", "181855.021000", "181855.024000", "181855.026000", "181855.029000", "181855.031000", "181855.034000", "181855.036000", "181855.041000", "181855.044000", "181855.046000", "181855.049000", "181855.051000", "181855.054000", "181934.378000", "181934.381000", "181934.383000", "181934.386000", "181934.389000", "181934.391000", "181934.394000", "181934.396000", "181934.398000", "181934.401000", "181934.403000", "181934.406000", "181934.408000", "181934.411000", "181934.413000", "181934.416000", "181934.418000", "181934.421000", "181934.423000", "181934.425000", "181934.428000", "181934.430000", "181934.433000", "181934.435000", "181934.438000", "181934.440000", "181934.443000"],
      "InstanceNumber": [1, 2, 3, 4, 5, 6, 7, 8, 9, 10, 11, 12, 13, 14, 15, 16, 17, 18, 19, 20, 21, 22, 23, 24, 25, 26, 27, 28, 29, 30, 31, 32, 33, 34, 35, 36, 37, 38, 39, 40, 41, 42, 43, 44, 45, 46, 47, 48, 49, 50, 51, 52, 53, 54, 55, 56, 57, 58, 59, 60, 61, 62, 63, 64, 65, 66, 67, 68, 69, 70, 71, 72, 73, 74, 75, 76, 77, 78, 79, 80, 81, 82, 83, 84, 85, 86, 87, 88, 89, 90, 91, 92, 93, 94, 95, 96, 97, 98, 99, 100, 101, 102, 103, 104, 105, 106, 107, 108, 109, 110, 111, 112, 113, 114, 115, 116, 117, 118, 119, 120, 121, 122, 123, 124, 125, 126, 127, 128, 129, 130, 131, 132, 133, 134, 135, 136, 137, 138, 139, 140, 141, 142, 143, 144, 145, 146, 147, 148, 149, 150, 151, 152, 153, 154, 155],
      "WindowCenter": [4856.0, 4856.0, 4856.0, 4858.0, 4856.0, 4862.0, 4830.0, 4826.0, 4828.0, 4830.0, 4856.0, 4858.0, 4856.0, 4854.0, 4856.0, 4858.0, 4854.0, 4832.0, 4830.0, 4854.0, 4856.0, 4856.0, 4856.0, 4858.0, 4856.0, 4856.0, 4858.0, 4856.0, 4856.0, 4856.0, 4854.0, 4856.0, 4856.0, 4858.0, 4858.0, 4858.0, 4856.0, 4858.0, 4854.0, 4858.0, 4858.0, 4856.0, 4858.0, 4858.0, 4854.0, 4856.0, 4834.0, 4854.0, 4856.0, 4858.0, 4858.0, 4856.0, 4860.0, 4856.0, 4856.0, 4854.0, 4858.0, 4856.0, 4858.0, 4856.0, 4858.0, 4852.0, 4856.0, 4856.0, 4830.0, 4832.0, 4856.0, 4862.0, 4860.0, 4860.0, 4856.0, 4856.0, 4862.0, 4856.0, 4858.0, 4860.0, 4854.0, 4856.0, 4856.0, 4858.0, 4858.0, 4856.0, 4858.0, 4858.0, 4856.0, 4854.0, 4860.0, 4858.0, 4858.0, 4858.0, 4858.0, 4850.0, 4852.0, 4884.0, 4856.0, 4798.0, 4796.0, 4826.0, 4830.0, 4856.0, 4854.0, 4856.0, 4858.0, 4858.0, 4858.0, 4856.0, 4828.0, 4828.0, 4828.0, 4858.0, 4856.0, 4860.0, 4862.0, 4856.0, 4860.0, 4858.0, 4858.0, 4858.0, 4856.0, 4856.0, 4832.0, 4854.0, 4854.0, 4856.0, 4856.0, 4858.0, 4856.0, 4860.0, 4860.0, 4858.0, 4858.0, 4854.0, 4858.0, 4856.0, 4858.0, 4858.0, 4854.0, 4854.0, 4856.0, 4858.0, 4858.0, 4858.0, 4858.0, 4858.0, 4858.0, 4856.0, 4856.0, 4858.0, 4858.0, 4858.0, 4856.0, 4858.0, 4830.0, 4858.0, 4858.0],
      "WindowWidth": [18610.0, 18620.0, 18614.0, 18618.0, 18624.0, 18620.0, 18588.0, 18592.0, 18588.0, 18586.0, 18624.0, 18620.0, 18616.0, 18622.0, 18622.0, 18620.0, 18616.0, 18592.0, 18584.0, 18618.0, 18620.0, 18618.0, 18618.0, 18624.0, 18620.0, 18620.0, 18618.0, 18626.0, 18622.0, 18622.0, 18620.0, 18622.0, 18622.0, 18622.0, 18620.0, 18630.0, 18622.0, 18624.0, 18622.0, 18622.0, 18624.0, 18622.0, 18626.0, 18628.0, 18620.0, 18620.0, 18590.0, 18624.0, 18624.0, 18620.0, 18628.0, 18622.0, 18624.0, 18622.0, 18620.0, 18622.0, 18626.0, 18626.0, 18624.0, 18622.0, 18628.0, 18624.0, 18626.0, 18620.0, 18594.0, 18588.0, 18622.0, 18628.0, 18626.0, 18626.0, 18622.0, 18618.0, 18624.0, 18620.0, 18620.0, 18628.0, 18626.0, 18622.0, 18620.0, 18624.0, 18620.0, 18622.0, 18620.0, 18624.0, 18622.0, 18616.0, 18624.0, 18628.0, 18622.0, 18622.0, 18628.0, 18626.0, 18630.0, 18660.0, 18618.0, 18558.0, 18562.0, 18594.0, 18588.0, 18620.0, 18622.0, 18624.0, 18614.0, 18620.0, 18626.0, 18620.0, 18582.0, 18586.0, 18584.0, 18622.0, 18626.0, 18620.0, 18626.0, 18614.0, 18618.0, 18624.0, 18630.0, 18622.0, 18618.0, 18620.0, 18592.0, 18618.0, 18624.0, 18624.0, 18620.0, 18620.0, 18618.0, 18626.0, 18624.0, 18620.0, 18620.0, 18622.0, 18620.0, 18622.0, 18624.0, 18624.0, 18616.0, 18620.0, 18626.0, 18620.0, 18620.0, 18614.0, 18624.0, 18622.0, 18626.0, 18618.0, 18618.0, 18622.0, 18624.0, 18624.0, 18620.0, 18624.0, 18590.0, 18624.0, 18628.0]
    },
    "slices": {}
  }
}