{
  "AcquisitionMatrixPE": 104,
  "AcquisitionNumber": 1,
  "AcquisitionTime": "18:15:42.295000",
  "BandwidthPerPixelPhaseEncode": 17.17,
  "BaseResolution": 104,
  "BodyPartExamined": "BRAIN",
  "CoilCombinationMethod": "Sum of Squares",
  "ConsistencyInfo": "N4_VE11C_LATEST_20160120",
  "ConversionSoftware": "dcm2niix",
  "ConversionSoftwareVersion": "v1.0.20211006",
  "DerivedVendorReportedEchoSpacing": 0.000560011,
  "DeviceSerialNumber": "167006",
  "DwellTime": 2.1e-06,
  "EchoTime": 0.037,
  "EchoTrainLength": 104,
  "EffectiveEchoSpacing": 0.000560011,
  "FlipAngle": 52,
  "HeudiconvVersion": "0.10.0",
  "ImageComments": "Unaliased MB4/PE3/LB",
  "ImageOrientationPatientDICOM": [0.997524, 0.0615639, 0.0339844, -0.048089, 0.949815, -0.309094],
  "ImageOrientationText": "Tra>Cor(-17.9)>Sag(2.9)",
  "ImageType": [
    "ORIGINAL",
    "PRIMARY",
    "M",
    "MB",
    "ND",
    "MOSAIC"
],
  "ImagingFrequency": 123.259,
  "InPlanePhaseEncodingDirectionDICOM": "COL",
  "InstitutionAddress": "Chemin Queen-Mary 4565,Montreal,District,CA,H3W 1W5",
  "InstitutionName": "IUGM",
  "InstitutionalDepartmentName": "Department",
  "MRAcquisitionType": "2D",
  "MagneticFieldStrength": 3,
  "Manufacturer": "Siemens",
  "ManufacturersModelName": "Prisma_fit",
  "MatrixCoilMode": "SENSE",
  "Modality": "MR",
  "MultibandAccelerationFactor": 4,
  "PartialFourier": 1,
  "PatientPosition": "HFS",
  "PercentPhaseFOV": 100,
  "PercentSampling": 100,
  "PhaseEncodingDirection": "j",
  "PhaseEncodingSteps": 104,
  "PhaseResolution": 1,
  "PixelBandwidth": 2290,
  "ProcedureStepDescription": "localizers^fLoc",
  "ProtocolName": "task_fLoc_run-2",
  "PulseSequenceDetails": "%CustomerSeq%\\cmrr_mbep2d_bold",
  "ReceiveCoilActiveElements": "HC1-7;NC1,2",
  "ReceiveCoilName": "HeadNeck_64",
  "ReconMatrixPE": 104,
  "RepetitionTime": 1.49,
  "SAR": 0.0450439,
  "ScanOptions": "FS",
  "ScanningSequence": "EP",
  "SequenceName": "epfid2d1_104",
  "SequenceVariant": "SK\\SS",
  "SeriesDescription": "task_fLoc_run-2",
  "SeriesNumber": 13,
  "ShimSetting": [627, -7187, -8820, 637, 70, 36, -48, -6],
  "SliceThickness": 2,
  "SliceTiming": [0, 0.7825, 0.0975, 0.8825, 0.195, 0.98, 0.2925, 1.0775, 0.3925, 1.175, 0.49, 1.2725, 0.5875, 1.37, 0.685, 0, 0.7825, 0.0975, 0.8825, 0.195, 0.98, 0.2925, 1.0775, 0.3925, 1.175, 0.49, 1.2725, 0.5875, 1.37, 0.685, 0, 0.7825, 0.0975, 0.8825, 0.195, 0.98, 0.2925, 1.0775, 0.3925, 1.175, 0.49, 1.2725, 0.5875, 1.37, 0.685, 0, 0.7825, 0.0975, 0.8825, 0.195, 0.98, 0.2925, 1.0775, 0.3925, 1.175, 0.49, 1.2725, 0.5875, 1.37, 0.685],
  "SoftwareVersions": "syngo MR E11",
  "SpacingBetweenSlices": 2,
  "StationName": "MRC35049",
  "TaskName": "fLoc",
  "TotalReadoutTime": 0.0576811,
  "TxRefAmp": 262.277,
  "WipMemBlock": "eaf796f7-aa6e-41bc-b81a-f32664093db5||Sequence: R016 ve11c/master r/e634e98; Dec 19 2017 11:00:25 by eja",
  "dcmmeta_affine": [
    [-1.9950487613677979, -0.0961780697107315, 0.10261587798595428, 108.69108581542969],
    [-0.12312787026166916, 1.899630069732666, -0.6133880615234375, -57.03122329711914],
    [0.06796886771917343, 0.6181870102882385, 1.9008485078811646, -58.53779602050781],
    [0.0, 0.0, 0.0, 1.0]
],
  "dcmmeta_reorient_transform": [
    [0.0, -1.0, 0.0, 103.0],
    [1.0, 0.0, 0.0, 0.0],
    [0.0, 0.0, 1.0, 0.0],
    [0.0, 0.0, 0.0, 1.0]
],
  "dcmmeta_shape": [104, 104, 60, 155],
  "dcmmeta_slice_dim": 2,
  "dcmmeta_version": 0.6,
  "global": {
    "const": {
      "AcquisitionMatrix": [104, 0, 0, 104],
      "AngioFlag": "N",
      "BitsAllocated": 16,
      "BitsStored": 16,
      "BodyPartExamined": "BRAIN",
      "Columns": 832,
      "EchoNumbers": 1,
      "EchoTime": 37.0,
      "EchoTrainLength": 104,
      "FlipAngle": 52.0,
      "HighBit": 15,
      "ImageOrientationPatient": [0.99752440588263, 0.06156393437933, 0.03398443249862, -0.0480890338697, 0.94981506222082, -0.3090935010639],
      "ImagePositionPatient": [-789.97369225311, -874.91459079632, 205.41486537712],
      "ImageType": [
        "ORIGINAL",
        "PRIMARY",
        "M",
        "MB",
        "ND",
        "MOSAIC"
],
      "ImagedNucleus": "1H",
      "ImagingFrequency": 123.258913,
      "InPlanePhaseEncodingDirection": "COL",
      "MRAcquisitionType": "2D",
      "MagneticFieldStrength": 3.0,
      "Manufacturer": "SIEMENS",
      "ManufacturerModelName": "Prisma_fit",
      "Modality": "MR",
      "NumberOfAverages": 1.0,
      "NumberOfPhaseEncodingSteps": 104,
      "PercentPhaseFieldOfView": 100.0,
      "PercentSampling": 100.0,
      "PerformedProcedureStepStartTime": "180649.909000",
      "PhotometricInterpretation": "MONOCHROME2",
      "PixelBandwidth": 2290.0,
      "PixelRepresentation": 0,
      "PixelSpacing": [2.0, 2.0],
      "ProtocolName": "task_fLoc_run-2",
      "RepetitionTime": 1490.0,
      "Rows": 832,
      "SAR": 0.04504385376461,
      "SamplesPerPixel": 1,
      "ScanOptions": "FS",
      "ScanningSequence": "EP",
      "SequenceName": "epfid2d1_104",
      "SequenceVariant": [
        "SK",
        "SS"
],
      "SeriesDescription": "task_fLoc_run-2",
      "SeriesNumber": 13,
      "SeriesTime": "181714.878000",
      "SliceLocation": -32.567892249697,
      "SliceThickness": 2.0,
      "SmallestImagePixelValue": 0,
      "SoftwareVersions": "syngo MR E11",
      "SpacingBetweenSlices": 2.0000000532091,
      "SpecificCharacterSet": "ISO_IR 100",
      "StudyID": "1",
      "StudyTime": "180649.830000",
      "TransmitCoilName": "Body",
      "VariableFlipAngleFlag": "N",
      "WindowCenterWidthExplanation": "Algo1",
      "dBdt": 0.0},
    "slices": {}
  },
  "time": {
    "samples": {
      "AcquisitionNumber": [1, 2, 3, 4, 5, 6, 7, 8, 9, 10, 11, 12, 13, 14, 15, 16, 17, 18, 19, 20, 21, 22, 23, 24, 25, 26, 27, 28, 29, 30, 31, 32, 33, 34, 35, 36, 37, 38, 39, 40, 41, 42, 43, 44, 45, 46, 47, 48, 49, 50, 51, 52, 53, 54, 55, 56, 57, 58, 59, 60, 61, 62, 63, 64, 65, 66, 67, 68, 69, 70, 71, 72, 73, 74, 75, 76, 77, 78, 79, 80, 81, 82, 83, 84, 85, 86, 87, 88, 89, 90, 91, 92, 93, 94, 95, 96, 97, 98, 99, 100, 101, 102, 103, 104, 105, 106, 107, 108, 109, 110, 111, 112, 113, 114, 115, 116, 117, 118, 119, 120, 121, 122, 123, 124, 125, 126, 127, 128, 129, 130, 131, 132, 133, 134, 135, 136, 137, 138, 139, 140, 141, 142, 143, 144, 145, 146, 147, 148, 149, 150, 151, 152, 153, 154, 155],
      "AcquisitionTime": ["181542.295000", "181543.785000", "181545.275000", "181546.765000", "181548.255000", "181549.745000", "181551.235000", "181552.725000", "181554.215000", "181555.705000", "181557.195000", "181558.685000", "181600.175000", "181601.665000", "181603.155000", "181604.645000", "181606.135000", "181607.625000", "181609.115000", "181610.605000", "181612.095000", "181613.585000", "181615.075000", "181616.565000", "181618.055000", "181619.545000", "181621.035000", "181622.525000", "181624.015000", "181625.505000", "181626.995000", "181628.485000", "181629.975000", "181631.465000", "181632.955000", "181634.445000", "181635.935000", "181637.425000", "181638.915000", "181640.405000", "181641.895000", "181643.385000", "181644.875000", "181646.365000", "181647.855000", "181649.345000", "181650.835000", "181652.325000", "181653.815000", "181655.305000", "181656.795000", "181658.285000", "181659.775000", "181701.265000", "181702.755000", "181704.245000", "181705.735000", "181707.225000", "181708.715000", "181710.205000", "181711.695000", "181713.185000", "181714.675000", "181716.165000", "181717.655000", "181719.145000", "181720.635000", "181722.125000", "181723.615000", "181725.105000", "181726.595000", "181728.085000", "181729.575000", "181731.065000", "181732.555000", "181734.045000", "181735.535000", "181737.025000", "181738.515000", "181740.005000", "181741.495000", "181742.985000", "181744.475000", "181745.965000", "181747.455000", "181748.945000", "181750.435000", "181751.925000", "181753.415000", "181754.905000", "181756.395000", "181757.885000", "181759.375000", "181800.865000", "181802.355000", "181803.845000", "181805.335000", "181806.825000", "181808.315000", "181809.805000", "181811.295000", "181812.785000", "181814.275000", "181815.765000", "181817.255000", "181818.745000", "181820.235000", "181821.725000", "181823.215000", "181824.705000", "181826.195000", "181827.685000", "181829.175000", "181830.665000", "181832.155000", "181833.645000", "181835.135000", "181836.625000", "181838.115000", "181839.605000", "181841.095000", "181842.585000", "181844.075000", "181845.565000", "181847.055000", "181848.545000", "181850.035000", "181851.525000", "181853.015000", "181854.505000", "181855.995000", "181857.485000", "181858.975000", "181900.465000", "181901.955000", "181903.445000", "181904.935000", "181906.425000", "181907.915000", "181909.405000", "181910.895000", "181912.385000", "181913.875000", "181915.365000", "181916.855000", "181918.345000", "181919.835000", "181921.325000", "181922.815000", "181924.305000", "181925.795000", "181927.285000", "181928.775000", "181930.265000", "181931.755000"],
      "ContentTime": ["181714.882000", "181714.886000", "181714.889000", "181714.892000", "181714.895000", "181714.899000", "181714.902000", "181714.905000", "181714.909000", "181714.912000", "181714.915000", "181714.918000", "181714.930000", "181714.933000", "181714.936000", "181714.939000", "181714.943000", "181714.946000", "181714.950000", "181714.953000", "181714.956000", "181714.960000", "181714.963000", "181714.966000", "181714.970000", "181714.973000", "181714.976000", "181714.979000", "181714.982000", "181714.986000", "181714.989000", "181714.992000", "181714.996000", "181715.002000", "181715.006000", "181715.010000", "181715.013000", "181715.017000", "181734.847000", "181734.851000", "181734.854000", "181734.857000", "181734.864000", "181734.867000", "181734.870000", "181734.874000", "181734.877000", "181734.880000", "181734.883000", "181734.887000", "181734.890000", "181734.893000", "181734.896000", "181734.900000", "181734.903000", "181734.906000", "181734.909000", "181734.913000", "181734.916000", "181754.847000", "181754.851000", "181754.854000", "181754.857000", "181754.860000", "181754.864000", "181754.867000", "181754.882000", "181754.885000", "181754.888000", "181754.892000", "181754.895000", "181754.898000", "181754.901000", "181754.904000", "181754.908000", "181754.911000", "181754.915000", "181754.918000", "181754.921000", "181814.848000", "181814.852000", "181814.855000", "181814.858000", "181814.861000", "181814.865000", "181814.868000", "181814.871000", "181814.874000", "181814.878000", "181814.881000", "181814.884000", "181814.887000", "181814.891000", "181814.894000", "181814.897000", "181814.900000", "181814.904000", "181814.907000", "181814.910000", "181854.847000", "181854.851000", "181854.854000", "181854.857000", "181854.860000", "181854.864000", "181854.867000", "181854.870000", "181854.874000", "181854.877000", "181854.880000", "181854.883000", "181854.886000", "181854.890000", "181854.893000", "181854.896000", "181854.899000", "181854.903000", "181854.906000", "181854.909000", "181854.912000", "181854.916000", "181854.919000", "181854.922000", "181854.925000", "181854.929000", "181854.932000", "181854.935000", "181854.938000", "181934.243000", "181934.246000", "181934.250000", "181934.253000", "181934.256000", "181934.259000", "181934.263000", "181934.266000", "181934.269000", "181934.272000", "181934.276000", "181934.279000", "181934.282000", "181934.286000", "181934.292000", "181934.295000", "181934.299000", "181934.302000", "181934.305000", "181934.309000", "181934.312000", "181934.315000", "181934.318000", "181934.322000", "181934.325000", "181934.328000", "181934.331000"],
      "InstanceCreationTime": ["181714.882000", "181714.886000", "181714.889000", "181714.892000", "181714.895000", "181714.899000", "181714.902000", "181714.905000", "181714.909000", "181714.912000", "181714.915000", "181714.918000", "181714.930000", "181714.933000", "181714.936000", "181714.939000", "181714.943000", "181714.946000", "181714.950000", "181714.953000", "181714.956000", "181714.960000", "181714.963000", "181714.966000", "181714.970000", "181714.973000", "181714.976000", "181714.979000", "181714.982000", "181714.986000", "181714.989000", "181714.992000", "181714.996000", "181715.002000", "181715.006000", "181715.010000", "181715.013000", "181715.017000", "181734.847000", "181734.851000", "181734.854000", "181734.857000", "181734.864000", "181734.867000", "181734.870000", "181734.874000", "181734.877000", "181734.880000", "181734.883000", "181734.887000", "181734.890000", "181734.893000", "181734.896000", "181734.900000", "181734.903000", "181734.906000", "181734.909000", "181734.913000", "181734.916000", "181754.847000", "181754.851000", "181754.854000", "181754.857000", "181754.860000", "181754.864000", "181754.867000", "181754.882000", "181754.885000", "181754.888000", "181754.892000", "181754.895000", "181754.898000", "181754.901000", "181754.904000", "181754.908000", "181754.911000", "181754.915000", "181754.918000", "181754.921000", "181814.848000", "181814.852000", "181814.855000", "181814.858000", "181814.861000", "181814.865000", "181814.868000", "181814.871000", "181814.874000", "181814.878000", "181814.881000", "181814.884000", "181814.887000", "181814.891000", "181814.894000", "181814.897000", "181814.900000", "181814.904000", "181814.907000", "181814.910000", "181854.847000", "181854.851000", "181854.854000", "181854.857000", "181854.860000", "181854.864000", "181854.867000", "181854.870000", "181854.874000", "181854.877000", "181854.880000", "181854.883000", "181854.886000", "181854.890000", "181854.893000", "181854.896000", "181854.899000", "181854.903000", "181854.906000", "181854.909000", "181854.912000", "181854.916000", "181854.919000", "181854.922000", "181854.925000", "181854.929000", "181854.932000", "181854.935000", "181854.938000", "181934.243000", "181934.246000", "181934.250000", "181934.253000", "181934.256000", "181934.259000", "181934.263000", "181934.266000", "181934.269000", "181934.272000", "181934.276000", "181934.279000", "181934.282000", "181934.286000", "181934.292000", "181934.295000", "181934.299000", "181934.302000", "181934.305000", "181934.309000", "181934.312000", "181934.315000", "181934.318000", "181934.322000", "181934.325000", "181934.328000", "181934.331000"],
      "InstanceNumber": [1, 2, 3, 4, 5, 6, 7, 8, 9, 10, 11, 12, 13, 14, 15, 16, 17, 18, 19, 20, 21, 22, 23, 24, 25, 26, 27, 28, 29, 30, 31, 32, 33, 34, 35, 36, 37, 38, 39, 40, 41, 42, 43, 44, 45, 46, 47, 48, 49, 50, 51, 52, 53, 54, 55, 56, 57, 58, 59, 60, 61, 62, 63, 64, 65, 66, 67, 68, 69, 70, 71, 72, 73, 74, 75, 76, 77, 78, 79, 80, 81, 82, 83, 84, 85, 86, 87, 88, 89, 90, 91, 92, 93, 94, 95, 96, 97, 98, 99, 100, 101, 102, 103, 104, 105, 106, 107, 108, 109, 110, 111, 112, 113, 114, 115, 116, 117, 118, 119, 120, 121, 122, 123, 124, 125, 126, 127, 128, 129, 130, 131, 132, 133, 134, 135, 136, 137, 138, 139, 140, 141, 142, 143, 144, 145, 146, 147, 148, 149, 150, 151, 152, 153, 154, 155],
      "LargestImagePixelValue": [42948, 42125, 41512, 40666, 40955, 42956, 42054, 41785, 40228, 40713, 39785, 40314, 41171, 40513, 40041, 41320, 41863, 41078, 40805, 40365, 40083, 41354, 39910, 39398, 39912, 40944, 40317, 40029, 40345, 40064, 39834, 39364, 39739, 40587, 39709, 39693, 40489, 40317, 39874, 39898, 39899, 39674, 39485, 40099, 40692, 40323, 40562, 39456, 39322, 40395, 39703, 39646, 39869, 39876, 40247, 39848, 40134, 41308, 41230, 40374, 39775, 40049, 41700, 41369, 40820, 39772, 39813, 39440, 40367, 40438, 39682, 39860, 40556, 40378, 39723, 39616, 40585, 40021, 39693, 39276, 39553, 39886, 39468, 39566, 39910, 39239, 39159, 39150, 40055, 39775, 39113, 39223, 39615, 40695, 40570, 41486, 39518, 39656, 39038, 38749, 39294, 39859, 39321, 39453, 39505, 40256, 40087, 39250, 39223, 39004, 38875, 39406, 39648, 39475, 39356, 39228, 39492, 39579, 39353, 39244, 39257, 39217, 39039, 39425, 39156, 39081, 39366, 39040, 39046, 39286, 39288, 39209, 39187, 39489, 39128, 39532, 39447, 39586, 39128, 39040, 39698, 39193, 39322, 39294, 39164, 39832, 39429, 39391, 39473, 40031, 39935, 40017, 39535, 39002, 39648],
      "WindowCenter": [10412.0, 10354.0, 10337.0, 10333.0, 10365.0, 10394.0, 10355.0, 10333.0, 10314.0, 10320.0, 10317.0, 10336.0, 10363.0, 10343.0, 10320.0, 10326.0, 10342.0, 10338.0, 10338.0, 10332.0, 10328.0, 10354.0, 10338.0, 10324.0, 10329.0, 10360.0, 10364.0, 10357.0, 10352.0, 10348.0, 10349.0, 10329.0, 10320.0, 10347.0, 10347.0, 10342.0, 10350.0, 10344.0, 10338.0, 10330.0, 10338.0, 10326.0, 10316.0, 10320.0, 10339.0, 10351.0, 10357.0, 10329.0, 10321.0, 10339.0, 10337.0, 10330.0, 10324.0, 10333.0, 10348.0, 10345.0, 10346.0, 10369.0, 10372.0, 10343.0, 10319.0, 10324.0, 10376.0, 10391.0, 10377.0, 10343.0, 10324.0, 10313.0, 10332.0, 10346.0, 10341.0, 10338.0, 10341.0, 10337.0, 10328.0, 10320.0, 10332.0, 10327.0, 10318.0, 10318.0, 10329.0, 10354.0, 10335.0, 10330.0, 10327.0, 10322.0, 10316.0, 10322.0, 10345.0, 10356.0, 10346.0, 10367.0, 10389.0, 10384.0, 10352.0, 10332.0, 10317.0, 10344.0, 10342.0, 10322.0, 10314.0, 10312.0, 10305.0, 10303.0, 10305.0, 10342.0, 10358.0, 10339.0, 10326.0, 10317.0, 10326.0, 10342.0, 10335.0, 10327.0, 10333.0, 10334.0, 10343.0, 10347.0, 10353.0, 10345.0, 10328.0, 10316.0, 10332.0, 10354.0, 10344.0, 10332.0, 10319.0, 10317.0, 10326.0, 10352.0, 10355.0, 10338.0, 10337.0, 10347.0, 10339.0, 10343.0, 10337.0, 10333.0, 10327.0, 10355.0, 10383.0, 10365.0, 10350.0, 10331.0, 10323.0, 10332.0, 10328.0, 10337.0, 10337.0, 10342.0, 10341.0, 10331.0, 10313.0, 10311.0, 10341.0],
      "WindowWidth": [22098.0, 21949.0, 21905.0, 21898.0, 21965.0, 22024.0, 21933.0, 21880.0, 21845.0, 21856.0, 21853.0, 21898.0, 21954.0, 21910.0, 21860.0, 21866.0, 21903.0, 21898.0, 21898.0, 21884.0, 21880.0, 21932.0, 21905.0, 21875.0, 21883.0, 21954.0, 21966.0, 21948.0, 21930.0, 21928.0, 21932.0, 21882.0, 21859.0, 21917.0, 21925.0, 21914.0, 21927.0, 21915.0, 21905.0, 21888.0, 21907.0, 21881.0, 21857.0, 21863.0, 21903.0, 21931.0, 21948.0, 21885.0, 21866.0, 21904.0, 21903.0, 21887.0, 21870.0, 21892.0, 21925.0, 21920.0, 21923.0, 21967.0, 21976.0, 21915.0, 21860.0, 21869.0, 21986.0, 22026.0, 21992.0, 21919.0, 21874.0, 21847.0, 21892.0, 21927.0, 21917.0, 21902.0, 21909.0, 21902.0, 21882.0, 21863.0, 21887.0, 21879.0, 21856.0, 21857.0, 21887.0, 21943.0, 21903.0, 21886.0, 21879.0, 21873.0, 21860.0, 21872.0, 21924.0, 21951.0, 21932.0, 21972.0, 22026.0, 22012.0, 21937.0, 21883.0, 21860.0, 21920.0, 21917.0, 21872.0, 21848.0, 21844.0, 21828.0, 21825.0, 21831.0, 21913.0, 21955.0, 21913.0, 21877.0, 21854.0, 21883.0, 21917.0, 21901.0, 21883.0, 21895.0, 21901.0, 21921.0, 21923.0, 21942.0, 21923.0, 21884.0, 21854.0, 21891.0, 21947.0, 21929.0, 21895.0, 21866.0, 21857.0, 21882.0, 21940.0, 21947.0, 21908.0, 21902.0, 21926.0, 21908.0, 21915.0, 21906.0, 21894.0, 21883.0, 21948.0, 22014.0, 21975.0, 21931.0, 21886.0, 21871.0, 21890.0, 21883.0, 21901.0, 21901.0, 21910.0, 21907.0, 21883.0, 21843.0, 21844.0, 21908.0]
    },
    "slices": {}
  }
}