{
  "AcquisitionMatrixPE": 104,
  "AcquisitionNumber": 1,
  "AcquisitionTime": "18:10:35.305000",
  "BandwidthPerPixelPhaseEncode": 17.17,
  "BaseResolution": 104,
  "BodyPartExamined": "BRAIN",
  "CoilCombinationMethod": "Sum of Squares",
  "ConsistencyInfo": "N4_VE11C_LATEST_20160120",
  "ConversionSoftware": "dcm2niix",
  "ConversionSoftwareVersion": "v1.0.20211006",
  "DerivedVendorReportedEchoSpacing": 0.000560011,
  "DeviceSerialNumber": "167006",
  "DwellTime": 2.1e-06,
  "EchoTime": 0.037,
  "EchoTime1": 0.037,
  "EchoTime2": 0.001,
  "EchoTrainLength": 104,
  "EffectiveEchoSpacing": 0.000560011,
  "FlipAngle": 52,
  "HeudiconvVersion": "0.10.0",
  "ImageComments": "Unaliased MB4/PE3/LB",
  "ImageOrientationPatientDICOM": [0.997524, 0.0615639, 0.0339844, -0.048089, 0.949815, -0.309094],
  "ImageOrientationText": "Tra>Cor(-17.9)>Sag(2.9)",
  "ImageType": [
    "ORIGINAL",
    "PRIMARY",
    "P",
    "MB",
    "ND",
    "MOSAIC",
    "PHASE"
],
  "ImagingFrequency": 123.259,
  "InPlanePhaseEncodingDirectionDICOM": "COL",
  "InstitutionAddress": "Chemin Queen-Mary 4565,Montreal,District,CA,H3W 1W5",
  "InstitutionName": "IUGM",
  "InstitutionalDepartmentName": "Department",
  "MRAcquisitionType": "2D",
  "MagneticFieldStrength": 3,
  "Manufacturer": "Siemens",
  "ManufacturersModelName": "Prisma_fit",
  "MatrixCoilMode": "SENSE",
  "Modality": "MR",
  "MultibandAccelerationFactor": 4,
  "PartialFourier": 1,
  "PatientPosition": "HFS",
  "PercentPhaseFOV": 100,
  "PercentSampling": 100,
  "PhaseEncodingDirection": "j",
  "PhaseEncodingSteps": 104,
  "PhaseResolution": 1,
  "PixelBandwidth": 2290,
  "ProcedureStepDescription": "localizers^fLoc",
  "ProtocolName": "task_fLoc_run-1",
  "PulseSequenceDetails": "%CustomerSeq%\\cmrr_mbep2d_bold",
  "ReceiveCoilActiveElements": "HC1-7;NC1,2",
  "ReceiveCoilName": "HeadNeck_64",
  "ReconMatrixPE": 104,
  "RepetitionTime": 1.49,
  "SAR": 0.0450439,
  "ScanOptions": "FS",
  "ScanningSequence": "EP",
  "SequenceName": "epfid2d1_104",
  "SequenceVariant": "SK\\SS",
  "SeriesDescription": "task_fLoc_run-1",
  "SeriesNumber": 11,
  "ShimSetting": [627, -7187, -8820, 637, 70, 36, -48, -6],
  "SliceThickness": 2,
  "SliceTiming": [0, 0.7825, 0.0975, 0.8825, 0.195, 0.98, 0.2925, 1.0775, 0.3925, 1.175, 0.49, 1.2725, 0.5875, 1.3725, 0.685, 0, 0.7825, 0.0975, 0.8825, 0.195, 0.98, 0.2925, 1.0775, 0.3925, 1.175, 0.49, 1.2725, 0.5875, 1.3725, 0.685, 0, 0.7825, 0.0975, 0.8825, 0.195, 0.98, 0.2925, 1.0775, 0.3925, 1.175, 0.49, 1.2725, 0.5875, 1.3725, 0.685, 0, 0.7825, 0.0975, 0.8825, 0.195, 0.98, 0.2925, 1.0775, 0.3925, 1.175, 0.49, 1.2725, 0.5875, 1.3725, 0.685],
  "SoftwareVersions": "syngo MR E11",
  "SpacingBetweenSlices": 2,
  "StationName": "MRC35049",
  "TaskName": "fLoc",
  "TotalReadoutTime": 0.0576811,
  "TxRefAmp": 262.277,
  "WipMemBlock": "d34c270b-0aff-495b-aa3d-64aaa30625fd||Sequence: R016 ve11c/master r/e634e98; Dec 19 2017 11:00:25 by eja",
  "dcmmeta_affine": [
    [-1.9950487613677979, -0.0961780697107315, 0.10261587798595428, 108.69108581542969],
    [-0.12312787026166916, 1.899630069732666, -0.6133880615234375, -57.03122329711914],
    [0.06796886771917343, 0.6181870102882385, 1.9008485078811646, -58.53779602050781],
    [0.0, 0.0, 0.0, 1.0]
],
  "dcmmeta_reorient_transform": [
    [0.0, -1.0, 0.0, 103.0],
    [1.0, 0.0, 0.0, 0.0],
    [0.0, 0.0, 1.0, 0.0],
    [0.0, 0.0, 0.0, 1.0]
],
  "dcmmeta_shape": [104, 104, 60, 155],
  "dcmmeta_slice_dim": 2,
  "dcmmeta_version": 0.6,
  "global": {
    "const": {
      "AcquisitionMatrix": [104, 0, 0, 104],
      "AngioFlag": "N",
      "BitsAllocated": 16,
      "BitsStored": 16,
      "BodyPartExamined": "BRAIN",
      "Columns": 832,
      "EchoNumbers": 1,
      "EchoTime": 37.0,
      "EchoTrainLength": 104,
      "FlipAngle": 52.0,
      "HighBit": 15,
      "ImageOrientationPatient": [0.99752440588263, 0.06156393437933, 0.03398443249862, -0.0480890338697, 0.94981506222082, -0.3090935010639],
      "ImagePositionPatient": [-789.97369225311, -874.91459079632, 205.41486537712],
      "ImageType": [
        "ORIGINAL",
        "PRIMARY",
        "P",
        "MB",
        "ND",
        "MOSAIC"
],
      "ImagedNucleus": "1H",
      "ImagingFrequency": 123.258912,
      "InPlanePhaseEncodingDirection": "COL",
      "LargestImagePixelValue": 4095,
      "MRAcquisitionType": "2D",
      "MagneticFieldStrength": 3.0,
      "Manufacturer": "SIEMENS",
      "ManufacturerModelName": "Prisma_fit",
      "Modality": "MR",
      "NumberOfAverages": 1.0,
      "NumberOfPhaseEncodingSteps": 104,
      "PercentPhaseFieldOfView": 100.0,
      "PercentSampling": 100.0,
      "PerformedProcedureStepStartTime": "180649.909000",
      "PhotometricInterpretation": "MONOCHROME2",
      "PixelBandwidth": 2290.0,
      "PixelRepresentation": 0,
      "PixelSpacing": [2.0, 2.0],
      "ProtocolName": "task_fLoc_run-1",
      "RepetitionTime": 1490.0,
      "RescaleIntercept": -4096.0,
      "RescaleSlope": 2.0,
      "RescaleType": "US",
      "Rows": 832,
      "SAR": 0.04504385376461,
      "SamplesPerPixel": 1,
      "ScanOptions": "FS",
      "ScanningSequence": "EP",
      "SequenceName": "epfid2d1_104",
      "SequenceVariant": [
        "SK",
        "SS"
],
      "SeriesDescription": "task_fLoc_run-1",
      "SeriesNumber": 11,
      "SeriesTime": "181200.864000",
      "SliceLocation": -32.567892249697,
      "SliceThickness": 2.0,
      "SmallestImagePixelValue": 0,
      "SoftwareVersions": "syngo MR E11",
      "SpacingBetweenSlices": 2.0000000532091,
      "SpecificCharacterSet": "ISO_IR 100",
      "StudyID": "1",
      "StudyTime": "180649.830000",
      "TransmitCoilName": "Body",
      "VariableFlipAngleFlag": "N",
      "WindowCenterWidthExplanation": "Algo1",
      "dBdt": 0.0},
    "slices": {}
  },
  "time": {
    "samples": {
      "AcquisitionNumber": [1, 2, 3, 4, 5, 6, 7, 8, 9, 10, 11, 12, 13, 14, 15, 16, 17, 18, 19, 20, 21, 22, 23, 24, 25, 26, 27, 28, 29, 30, 31, 32, 33, 34, 35, 36, 37, 38, 39, 40, 41, 42, 43, 44, 45, 46, 47, 48, 49, 50, 51, 52, 53, 54, 55, 56, 57, 58, 59, 60, 61, 62, 63, 64, 65, 66, 67, 68, 69, 70, 71, 72, 73, 74, 75, 76, 77, 78, 79, 80, 81, 82, 83, 84, 85, 86, 87, 88, 89, 90, 91, 92, 93, 94, 95, 96, 97, 98, 99, 100, 101, 102, 103, 104, 105, 106, 107, 108, 109, 110, 111, 112, 113, 114, 115, 116, 117, 118, 119, 120, 121, 122, 123, 124, 125, 126, 127, 128, 129, 130, 131, 132, 133, 134, 135, 136, 137, 138, 139, 140, 141, 142, 143, 144, 145, 146, 147, 148, 149, 150, 151, 152, 153, 154, 155],
      "AcquisitionTime": ["181035.305000", "181036.795000", "181038.285000", "181039.775000", "181041.265000", "181042.755000", "181044.245000", "181045.735000", "181047.225000", "181048.715000", "181050.205000", "181051.695000", "181053.185000", "181054.675000", "181056.165000", "181057.655000", "181059.145000", "181100.635000", "181102.125000", "181103.615000", "181105.105000", "181106.595000", "181108.085000", "181109.575000", "181111.065000", "181112.555000", "181114.045000", "181115.535000", "181117.025000", "181118.515000", "181120.005000", "181121.495000", "181122.985000", "181124.475000", "181125.965000", "181127.455000", "181128.945000", "181130.435000", "181131.925000", "181133.415000", "181134.905000", "181136.395000", "181137.885000", "181139.375000", "181140.865000", "181142.355000", "181143.845000", "181145.335000", "181146.825000", "181148.315000", "181149.805000", "181151.295000", "181152.785000", "181154.275000", "181155.765000", "181157.255000", "181158.745000", "181200.235000", "181201.725000", "181203.215000", "181204.705000", "181206.195000", "181207.685000", "181209.175000", "181210.665000", "181212.155000", "181213.645000", "181215.135000", "181216.625000", "181218.115000", "181219.605000", "181221.095000", "181222.585000", "181224.075000", "181225.565000", "181227.055000", "181228.545000", "181230.035000", "181231.525000", "181233.015000", "181234.505000", "181235.995000", "181237.485000", "181238.975000", "181240.465000", "181241.955000", "181243.445000", "181244.935000", "181246.425000", "181247.915000", "181249.405000", "181250.895000", "181252.385000", "181253.875000", "181255.365000", "181256.855000", "181258.345000", "181259.835000", "181301.325000", "181302.815000", "181304.305000", "181305.795000", "181307.285000", "181308.775000", "181310.265000", "181311.755000", "181313.245000", "181314.735000", "181316.225000", "181317.715000", "181319.205000", "181320.695000", "181322.185000", "181323.675000", "181325.165000", "181326.655000", "181328.145000", "181329.635000", "181331.125000", "181332.615000", "181334.105000", "181335.595000", "181337.085000", "181338.575000", "181340.065000", "181341.555000", "181343.045000", "181344.535000", "181346.025000", "181347.515000", "181349.005000", "181350.495000", "181351.985000", "181353.475000", "181354.965000", "181356.455000", "181357.945000", "181359.435000", "181400.925000", "181402.415000", "181403.905000", "181405.395000", "181406.885000", "181408.375000", "181409.865000", "181411.355000", "181412.845000", "181414.335000", "181415.825000", "181417.315000", "181418.805000", "181420.295000", "181421.785000", "181423.275000", "181424.765000"],
      "ContentTime": ["181200.866000", "181200.875000", "181200.879000", "181200.883000", "181200.885000", "181200.888000", "181200.891000", "181200.893000", "181200.896000", "181200.898000", "181200.901000", "181200.903000", "181200.906000", "181200.908000", "181200.912000", "181200.914000", "181200.917000", "181200.919000", "181200.922000", "181200.924000", "181200.927000", "181200.929000", "181200.932000", "181200.934000", "181200.937000", "181200.939000", "181200.942000", "181200.945000", "181200.947000", "181200.950000", "181200.952000", "181200.955000", "181220.771000", "181220.773000", "181220.776000", "181220.778000", "181220.781000", "181220.783000", "181220.786000", "181220.788000", "181220.791000", "181220.793000", "181220.795000", "181220.798000", "181220.800000", "181220.803000", "181220.809000", "181220.812000", "181220.814000", "181220.817000", "181220.819000", "181220.822000", "181240.753000", "181240.755000", "181240.758000", "181240.760000", "181240.763000", "181240.765000", "181240.768000", "181240.770000", "181240.773000", "181240.775000", "181240.777000", "181240.780000", "181240.782000", "181240.785000", "181240.787000", "181240.790000", "181240.792000", "181240.795000", "181240.797000", "181240.800000", "181240.802000", "181300.753000", "181300.755000", "181300.758000", "181300.760000", "181300.762000", "181300.765000", "181300.767000", "181300.770000", "181300.772000", "181300.775000", "181300.777000", "181300.780000", "181300.783000", "181300.785000", "181300.788000", "181300.790000", "181300.793000", "181300.795000", "181300.798000", "181300.800000", "181340.796000", "181340.798000", "181340.801000", "181340.803000", "181340.806000", "181340.808000", "181340.811000", "181340.813000", "181340.816000", "181340.818000", "181340.820000", "181340.823000", "181340.825000", "181340.828000", "181340.831000", "181340.833000", "181340.836000", "181340.838000", "181340.841000", "181340.843000", "181340.846000", "181340.849000", "181340.851000", "181340.854000", "181340.856000", "181340.858000", "181340.861000", "181340.863000", "181340.866000", "181340.868000", "181340.872000", "181420.791000", "181420.794000", "181420.796000", "181420.799000", "181420.801000", "181420.803000", "181420.806000", "181420.813000", "181420.816000", "181420.818000", "181420.821000", "181420.823000", "181420.826000", "181420.828000", "181420.831000", "181420.833000", "181420.836000", "181420.838000", "181420.841000", "181420.843000", "181420.846000", "181420.848000", "181420.851000", "181420.853000", "181420.856000", "181420.858000", "181420.861000", "181426.592000", "181426.595000", "181426.597000", "181426.600000"],
      "InstanceCreationTime": ["181200.866000", "181200.875000", "181200.879000", "181200.883000", "181200.885000", "181200.888000", "181200.891000", "181200.893000", "181200.896000", "181200.898000", "181200.901000", "181200.903000", "181200.906000", "181200.908000", "181200.912000", "181200.914000", "181200.917000", "181200.919000", "181200.922000", "181200.924000", "181200.927000", "181200.929000", "181200.932000", "181200.934000", "181200.937000", "181200.939000", "181200.942000", "181200.945000", "181200.947000", "181200.950000", "181200.952000", "181200.955000", "181220.771000", "181220.773000", "181220.776000", "181220.778000", "181220.781000", "181220.783000", "181220.786000", "181220.788000", "181220.791000", "181220.793000", "181220.795000", "181220.798000", "181220.800000", "181220.803000", "181220.809000", "181220.812000", "181220.814000", "181220.817000", "181220.819000", "181220.822000", "181240.753000", "181240.755000", "181240.758000", "181240.760000", "181240.763000", "181240.765000", "181240.768000", "181240.770000", "181240.773000", "181240.775000", "181240.777000", "181240.780000", "181240.782000", "181240.785000", "181240.787000", "181240.790000", "181240.792000", "181240.795000", "181240.797000", "181240.800000", "181240.802000", "181300.753000", "181300.755000", "181300.758000", "181300.760000", "181300.762000", "181300.765000", "181300.767000", "181300.770000", "181300.772000", "181300.775000", "181300.777000", "181300.780000", "181300.783000", "181300.785000", "181300.788000", "181300.790000", "181300.793000", "181300.795000", "181300.798000", "181300.800000", "181340.796000", "181340.798000", "181340.801000", "181340.803000", "181340.806000", "181340.808000", "181340.811000", "181340.813000", "181340.816000", "181340.818000", "181340.820000", "181340.823000", "181340.825000", "181340.828000", "181340.831000", "181340.833000", "181340.836000", "181340.838000", "181340.841000", "181340.843000", "181340.846000", "181340.849000", "181340.851000", "181340.854000", "181340.856000", "181340.858000", "181340.861000", "181340.863000", "181340.866000", "181340.868000", "181340.872000", "181420.791000", "181420.794000", "181420.796000", "181420.799000", "181420.801000", "181420.803000", "181420.806000", "181420.813000", "181420.816000", "181420.818000", "181420.821000", "181420.823000", "181420.826000", "181420.828000", "181420.831000", "181420.833000", "181420.836000", "181420.838000", "181420.841000", "181420.843000", "181420.846000", "181420.848000", "181420.851000", "181420.853000", "181420.856000", "181420.858000", "181420.861000", "181426.592000", "181426.595000", "181426.597000", "181426.600000"],
      "InstanceNumber": [1, 2, 3, 4, 5, 6, 7, 8, 9, 10, 11, 12, 13, 14, 15, 16, 17, 18, 19, 20, 21, 22, 23, 24, 25, 26, 27, 28, 29, 30, 31, 32, 33, 34, 35, 36, 37, 38, 39, 40, 41, 42, 43, 44, 45, 46, 47, 48, 49, 50, 51, 52, 53, 54, 55, 56, 57, 58, 59, 60, 61, 62, 63, 64, 65, 66, 67, 68, 69, 70, 71, 72, 73, 74, 75, 76, 77, 78, 79, 80, 81, 82, 83, 84, 85, 86, 87, 88, 89, 90, 91, 92, 93, 94, 95, 96, 97, 98, 99, 100, 101, 102, 103, 104, 105, 106, 107, 108, 109, 110, 111, 112, 113, 114, 115, 116, 117, 118, 119, 120, 121, 122, 123, 124, 125, 126, 127, 128, 129, 130, 131, 132, 133, 134, 135, 136, 137, 138, 139, 140, 141, 142, 143, 144, 145, 146, 147, 148, 149, 150, 151, 152, 153, 154, 155],
      "WindowCenter": [4854.0, 4858.0, 4856.0, 4858.0, 4832.0, 4828.0, 4856.0, 4854.0, 4856.0, 4854.0, 4860.0, 4856.0, 4860.0, 4856.0, 4856.0, 4860.0, 4832.0, 4830.0, 4854.0, 4860.0, 4854.0, 4856.0, 4858.0, 4858.0, 4858.0, 4856.0, 4854.0, 4858.0, 4858.0, 4858.0, 4856.0, 4856.0, 4856.0, 4856.0, 4854.0, 4856.0, 4852.0, 4882.0, 4858.0, 4834.0, 4856.0, 4856.0, 4856.0, 4834.0, 4856.0, 4858.0, 4858.0, 4858.0, 4858.0, 4856.0, 4860.0, 4856.0, 4856.0, 4854.0, 4854.0, 4834.0, 4860.0, 4860.0, 4860.0, 4856.0, 4856.0, 4854.0, 4856.0, 4856.0, 4856.0, 4858.0, 4856.0, 4856.0, 4856.0, 4856.0, 4858.0, 4858.0, 4856.0, 4860.0, 4856.0, 4858.0, 4856.0, 4858.0, 4860.0, 4858.0, 4858.0, 4858.0, 4856.0, 4856.0, 4882.0, 4858.0, 4858.0, 4854.0, 4832.0, 4856.0, 4858.0, 4858.0, 4856.0, 4860.0, 4858.0, 4858.0, 4860.0, 4860.0, 4858.0, 4854.0, 4834.0, 4856.0, 4856.0, 4860.0, 4858.0, 4856.0, 4858.0, 4858.0, 4856.0, 4858.0, 4858.0, 4862.0, 4858.0, 4856.0, 4858.0, 4858.0, 4860.0, 4858.0, 4858.0, 4856.0, 4860.0, 4858.0, 4858.0, 4860.0, 4856.0, 4832.0, 4856.0, 4860.0, 4884.0, 4858.0, 4854.0, 4832.0, 4832.0, 4860.0, 4856.0, 4858.0, 4858.0, 4860.0, 4856.0, 4862.0, 4856.0, 4854.0, 4854.0, 4858.0, 4858.0, 4852.0, 4854.0, 4860.0, 4858.0, 4858.0, 4856.0, 4878.0, 4860.0, 4856.0, 4834.0],
      "WindowWidth": [18620.0, 18628.0, 18630.0, 18620.0, 18588.0, 18586.0, 18626.0, 18618.0, 18620.0, 18618.0, 18624.0, 18624.0, 18624.0, 18622.0, 18622.0, 18626.0, 18590.0, 18590.0, 18620.0, 18630.0, 18618.0, 18620.0, 18622.0, 18628.0, 18622.0, 18618.0, 18620.0, 18620.0, 18626.0, 18624.0, 18620.0, 18618.0, 18628.0, 18620.0, 18624.0, 18624.0, 18620.0, 18658.0, 18620.0, 18590.0, 18626.0, 18616.0, 18618.0, 18590.0, 18616.0, 18622.0, 18624.0, 18620.0, 18622.0, 18620.0, 18626.0, 18618.0, 18622.0, 18618.0, 18618.0, 18590.0, 18624.0, 18620.0, 18620.0, 18618.0, 18620.0, 18618.0, 18618.0, 18624.0, 18622.0, 18624.0, 18620.0, 18618.0, 18620.0, 18616.0, 18626.0, 18622.0, 18616.0, 18626.0, 18620.0, 18618.0, 18622.0, 18624.0, 18628.0, 18622.0, 18618.0, 18626.0, 18618.0, 18618.0, 18654.0, 18622.0, 18628.0, 18620.0, 18592.0, 18624.0, 18630.0, 18618.0, 18622.0, 18624.0, 18622.0, 18622.0, 18622.0, 18622.0, 18624.0, 18618.0, 18590.0, 18618.0, 18614.0, 18618.0, 18614.0, 18616.0, 18618.0, 18622.0, 18616.0, 18618.0, 18616.0, 18626.0, 18622.0, 18620.0, 18618.0, 18616.0, 18622.0, 18618.0, 18622.0, 18618.0, 18622.0, 18618.0, 18620.0, 18618.0, 18620.0, 18588.0, 18620.0, 18626.0, 18658.0, 18624.0, 18618.0, 18582.0, 18584.0, 18620.0, 18618.0, 18614.0, 18620.0, 18622.0, 18614.0, 18622.0, 18620.0, 18618.0, 18620.0, 18628.0, 18626.0, 18616.0, 18616.0, 18626.0, 18620.0, 18616.0, 18620.0, 18658.0, 18628.0, 18620.0, 18592.0]
    },
    "slices": {}
  }
}