{
  "AcquisitionMatrixPE": 104,
  "AcquisitionNumber": 1,
  "AcquisitionTime": "14:08:43.717500",
  "BandwidthPerPixelPhaseEncode": 17.17,
  "BaseResolution": 104,
  "BodyPartExamined": "BRAIN",
  "CoilCombinationMethod": "Sum of Squares",
  "ConsistencyInfo": "N4_VE11C_LATEST_20160120",
  "ConversionSoftware": "dcm2niix",
  "ConversionSoftwareVersion": "v1.0.20211006",
  "DerivedVendorReportedEchoSpacing": 0.000560011,
  "DeviceSerialNumber": "167006",
  "DwellTime": 2.1e-06,
  "EchoTime": 0.037,
  "EchoTrainLength": 104,
  "EffectiveEchoSpacing": 0.000560011,
  "FlipAngle": 52,
  "HeudiconvVersion": "0.10.0",
  "ImageComments": "Unaliased MB4/PE3/LB",
  "ImageOrientationPatientDICOM": [0.999253, 0.00306947, 0.0385145, 0.00715068, 0.964926, -0.262425],
  "ImageOrientationText": "Tra>Cor(-15.2)>Sag(2.2)",
  "ImageType": [
    "ORIGINAL",
    "PRIMARY",
    "M",
    "MB",
    "ND",
    "MOSAIC"
],
  "ImagingFrequency": 123.259,
  "InPlanePhaseEncodingDirectionDICOM": "COL",
  "InstitutionAddress": "Chemin Queen-Mary 4565,Montreal,District,CA,H3W 1W5",
  "InstitutionName": "IUGM",
  "InstitutionalDepartmentName": "Department",
  "MRAcquisitionType": "2D",
  "MagneticFieldStrength": 3,
  "Manufacturer": "Siemens",
  "ManufacturersModelName": "Prisma_fit",
  "MatrixCoilMode": "SENSE",
  "Modality": "MR",
  "MultibandAccelerationFactor": 4,
  "PartialFourier": 1,
  "PatientPosition": "HFS",
  "PercentPhaseFOV": 100,
  "PercentSampling": 100,
  "PhaseEncodingDirection": "j",
  "PhaseEncodingSteps": 104,
  "PhaseResolution": 1,
  "PixelBandwidth": 2290,
  "ProcedureStepDescription": "localizers^fLoc",
  "ProtocolName": "task_fLoc_run-2",
  "PulseSequenceDetails": "%CustomerSeq%\\cmrr_mbep2d_bold",
  "ReceiveCoilActiveElements": "HC1-7;NC1,2",
  "ReceiveCoilName": "HeadNeck_64",
  "ReconMatrixPE": 104,
  "RepetitionTime": 1.49,
  "SAR": 0.0565733,
  "ScanOptions": "FS",
  "ScanningSequence": "EP",
  "SequenceName": "epfid2d1_104",
  "SequenceVariant": "SK\\SS",
  "SeriesDescription": "task_fLoc_run-2",
  "SeriesNumber": 13,
  "ShimSetting": [641, -7222, -8790, 726, 67, 4, 35, -3],
  "SliceThickness": 2,
  "SliceTiming": [0, 0.7825, 0.0975, 0.88, 0.195, 0.9775, 0.2925, 1.0775, 0.39, 1.175, 0.49, 1.2725, 0.5875, 1.37, 0.685, 0, 0.7825, 0.0975, 0.88, 0.195, 0.9775, 0.2925, 1.0775, 0.39, 1.175, 0.49, 1.2725, 0.5875, 1.37, 0.685, 0, 0.7825, 0.0975, 0.88, 0.195, 0.9775, 0.2925, 1.0775, 0.39, 1.175, 0.49, 1.2725, 0.5875, 1.37, 0.685, 0, 0.7825, 0.0975, 0.88, 0.195, 0.9775, 0.2925, 1.0775, 0.39, 1.175, 0.49, 1.2725, 0.5875, 1.37, 0.685],
  "SoftwareVersions": "syngo MR E11",
  "SpacingBetweenSlices": 2,
  "StationName": "MRC35049",
  "TaskName": "fLoc",
  "TotalReadoutTime": 0.0576811,
  "TxRefAmp": 241.207,
  "WipMemBlock": "41cfc407-556e-49f5-8bb8-d0ee08327b4d||Sequence: R016 ve11c/master r/e634e98; Dec 19 2017 11:00:25 by eja",
  "dcmmeta_affine": [
    [-1.9985066652297974, 0.014301354996860027, 0.07593826204538345, 105.92222595214844],
    [-0.006138938013464212, 1.92985200881958, -0.5250082015991211, -73.78701782226562],
    [0.07702896744012833, 0.5248492360115051, 1.9283671379089355, -65.42401885986328],
    [0.0, 0.0, 0.0, 1.0]
],
  "dcmmeta_reorient_transform": [
    [0.0, -1.0, 0.0, 103.0],
    [1.0, 0.0, 0.0, 0.0],
    [0.0, 0.0, 1.0, 0.0],
    [0.0, 0.0, 0.0, 1.0]
],
  "dcmmeta_shape": [104, 104, 60, 155],
  "dcmmeta_slice_dim": 2,
  "dcmmeta_version": 0.6,
  "global": {
    "const": {
      "AcquisitionMatrix": [104, 0, 0, 104],
      "AngioFlag": "N",
      "BitsAllocated": 16,
      "BitsStored": 16,
      "BodyPartExamined": "BRAIN",
      "Columns": 832,
      "EchoNumbers": 1,
      "EchoTime": 37.0,
      "EchoTrainLength": 104,
      "FlipAngle": 52.0,
      "HighBit": 15,
      "ImageOrientationPatient": [0.99925332776369, 0.00306946889667, 0.03851448187222, 0.0071506776314, 0.96492599717157, -0.2624246325936],
      "ImagePositionPatient": [-840.0573793435, -829.68843565452, 151.64204224464],
      "ImageType": [
        "ORIGINAL",
        "PRIMARY",
        "M",
        "MB",
        "ND",
        "MOSAIC"
],
      "ImagedNucleus": "1H",
      "ImagingFrequency": 123.258932,
      "InPlanePhaseEncodingDirection": "COL",
      "MRAcquisitionType": "2D",
      "MagneticFieldStrength": 3.0,
      "Manufacturer": "SIEMENS",
      "ManufacturerModelName": "Prisma_fit",
      "Modality": "MR",
      "NumberOfAverages": 1.0,
      "NumberOfPhaseEncodingSteps": 104,
      "PercentPhaseFieldOfView": 100.0,
      "PercentSampling": 100.0,
      "PerformedProcedureStepStartTime": "140017.154000",
      "PhotometricInterpretation": "MONOCHROME2",
      "PixelBandwidth": 2290.0,
      "PixelRepresentation": 0,
      "PixelSpacing": [2.0, 2.0],
      "ProtocolName": "task_fLoc_run-2",
      "RepetitionTime": 1490.0,
      "Rows": 832,
      "SAR": 0.05657333245205,
      "SamplesPerPixel": 1,
      "ScanOptions": "FS",
      "ScanningSequence": "EP",
      "SequenceName": "epfid2d1_104",
      "SequenceVariant": [
        "SK",
        "SS"
],
      "SeriesDescription": "task_fLoc_run-2",
      "SeriesNumber": 13,
      "SeriesTime": "141001.084000",
      "SliceLocation": -39.689597534886,
      "SliceThickness": 2.0,
      "SmallestImagePixelValue": 0,
      "SoftwareVersions": "syngo MR E11",
      "SpacingBetweenSlices": 2.0000000318967,
      "SpecificCharacterSet": "ISO_IR 100",
      "StudyID": "1",
      "StudyTime": "140017.086000",
      "TransmitCoilName": "Body",
      "VariableFlipAngleFlag": "N",
      "WindowCenterWidthExplanation": "Algo1",
      "dBdt": 0.0},
    "slices": {}
  },
  "time": {
    "samples": {
      "AcquisitionNumber": [1, 2, 3, 4, 5, 6, 7, 8, 9, 10, 11, 12, 13, 14, 15, 16, 17, 18, 19, 20, 21, 22, 23, 24, 25, 26, 27, 28, 29, 30, 31, 32, 33, 34, 35, 36, 37, 38, 39, 40, 41, 42, 43, 44, 45, 46, 47, 48, 49, 50, 51, 52, 53, 54, 55, 56, 57, 58, 59, 60, 61, 62, 63, 64, 65, 66, 67, 68, 69, 70, 71, 72, 73, 74, 75, 76, 77, 78, 79, 80, 81, 82, 83, 84, 85, 86, 87, 88, 89, 90, 91, 92, 93, 94, 95, 96, 97, 98, 99, 100, 101, 102, 103, 104, 105, 106, 107, 108, 109, 110, 111, 112, 113, 114, 115, 116, 117, 118, 119, 120, 121, 122, 123, 124, 125, 126, 127, 128, 129, 130, 131, 132, 133, 134, 135, 136, 137, 138, 139, 140, 141, 142, 143, 144, 145, 146, 147, 148, 149, 150, 151, 152, 153, 154, 155],
      "AcquisitionTime": ["140843.717500", "140845.207500", "140846.697500", "140848.187500", "140849.677500", "140851.167500", "140852.657500", "140854.147500", "140855.637500", "140857.127500", "140858.617500", "140900.107500", "140901.597500", "140903.087500", "140904.577500", "140906.067500", "140907.557500", "140909.047500", "140910.537500", "140912.027500", "140913.517500", "140915.007500", "140916.497500", "140917.987500", "140919.477500", "140920.967500", "140922.457500", "140923.947500", "140925.437500", "140926.927500", "140928.417500", "140929.907500", "140931.397500", "140932.887500", "140934.377500", "140935.867500", "140937.357500", "140938.847500", "140940.337500", "140941.827500", "140943.317500", "140944.807500", "140946.297500", "140947.787500", "140949.277500", "140950.767500", "140952.257500", "140953.747500", "140955.237500", "140956.727500", "140958.217500", "140959.707500", "141001.197500", "141002.687500", "141004.177500", "141005.667500", "141007.157500", "141008.647500", "141010.137500", "141011.627500", "141013.117500", "141014.607500", "141016.097500", "141017.587500", "141019.077500", "141020.567500", "141022.057500", "141023.547500", "141025.037500", "141026.527500", "141028.017500", "141029.507500", "141030.997500", "141032.487500", "141033.977500", "141035.467500", "141036.957500", "141038.447500", "141039.937500", "141041.427500", "141042.917500", "141044.407500", "141045.897500", "141047.387500", "141048.877500", "141050.367500", "141051.857500", "141053.347500", "141054.837500", "141056.327500", "141057.817500", "141059.307500", "141100.797500", "141102.287500", "141103.777500", "141105.267500", "141106.757500", "141108.247500", "141109.737500", "141111.227500", "141112.717500", "141114.207500", "141115.697500", "141117.187500", "141118.677500", "141120.167500", "141121.657500", "141123.147500", "141124.637500", "141126.127500", "141127.617500", "141129.107500", "141130.597500", "141132.087500", "141133.577500", "141135.067500", "141136.557500", "141138.047500", "141139.537500", "141141.027500", "141142.517500", "141144.007500", "141145.497500", "141146.987500", "141148.477500", "141149.967500", "141151.457500", "141152.947500", "141154.437500", "141155.927500", "141157.417500", "141158.907500", "141200.397500", "141201.887500", "141203.377500", "141204.867500", "141206.357500", "141207.847500", "141209.337500", "141210.827500", "141212.317500", "141213.807500", "141215.297500", "141216.787500", "141218.277500", "141219.767500", "141221.257500", "141222.747500", "141224.237500", "141225.727500", "141227.217500", "141228.707500", "141230.197500", "141231.687500", "141233.177500"],
      "ContentTime": ["141001.087000", "141001.091000", "141001.095000", "141001.099000", "141001.102000", "141001.105000", "141001.108000", "141001.112000", "141001.115000", "141001.118000", "141001.121000", "141001.125000", "141001.128000", "141001.131000", "141001.135000", "141001.138000", "141001.141000", "141001.144000", "141001.148000", "141001.151000", "141001.154000", "141001.158000", "141021.051000", "141021.055000", "141021.058000", "141021.061000", "141021.065000", "141021.068000", "141021.071000", "141021.074000", "141021.078000", "141021.081000", "141021.097000", "141021.101000", "141021.104000", "141021.107000", "141021.110000", "141021.113000", "141021.117000", "141021.120000", "141021.123000", "141021.127000", "141041.051000", "141041.055000", "141041.058000", "141041.061000", "141041.064000", "141041.068000", "141041.071000", "141041.074000", "141041.077000", "141041.080000", "141041.084000", "141041.087000", "141041.090000", "141041.093000", "141041.097000", "141041.100000", "141041.103000", "141041.107000", "141041.111000", "141041.114000", "141101.050000", "141101.054000", "141101.057000", "141101.060000", "141101.064000", "141101.067000", "141101.070000", "141101.073000", "141101.077000", "141101.080000", "141101.083000", "141101.087000", "141101.090000", "141101.093000", "141101.096000", "141101.099000", "141101.103000", "141101.106000", "141101.109000", "141101.113000", "141121.050000", "141121.054000", "141121.057000", "141121.060000", "141121.064000", "141121.067000", "141121.070000", "141121.073000", "141121.077000", "141121.080000", "141121.083000", "141121.086000", "141121.090000", "141121.093000", "141121.096000", "141121.099000", "141121.103000", "141121.106000", "141121.109000", "141121.113000", "141201.051000", "141201.055000", "141201.058000", "141201.061000", "141201.065000", "141201.068000", "141201.071000", "141201.074000", "141201.078000", "141201.081000", "141201.084000", "141201.088000", "141201.091000", "141201.094000", "141201.097000", "141201.100000", "141201.104000", "141201.107000", "141201.110000", "141201.114000", "141201.117000", "141201.120000", "141201.123000", "141201.127000", "141201.130000", "141201.133000", "141201.136000", "141201.140000", "141201.143000", "141201.146000", "141235.334000", "141235.338000", "141235.341000", "141235.345000", "141235.348000", "141235.351000", "141235.354000", "141235.358000", "141235.361000", "141235.364000", "141235.367000", "141235.371000", "141235.374000", "141235.377000", "141235.381000", "141235.384000", "141235.387000", "141235.390000", "141235.394000", "141235.397000", "141235.400000", "141235.403000", "141235.407000"],
      "InstanceCreationTime": ["141001.087000", "141001.091000", "141001.095000", "141001.099000", "141001.102000", "141001.105000", "141001.108000", "141001.112000", "141001.115000", "141001.118000", "141001.121000", "141001.125000", "141001.128000", "141001.131000", "141001.135000", "141001.138000", "141001.141000", "141001.144000", "141001.148000", "141001.151000", "141001.154000", "141001.158000", "141021.051000", "141021.055000", "141021.058000", "141021.061000", "141021.065000", "141021.068000", "141021.071000", "141021.074000", "141021.078000", "141021.081000", "141021.097000", "141021.101000", "141021.104000", "141021.107000", "141021.110000", "141021.113000", "141021.117000", "141021.120000", "141021.123000", "141021.127000", "141041.051000", "141041.055000", "141041.058000", "141041.061000", "141041.064000", "141041.068000", "141041.071000", "141041.074000", "141041.077000", "141041.080000", "141041.084000", "141041.087000", "141041.090000", "141041.093000", "141041.097000", "141041.100000", "141041.103000", "141041.107000", "141041.111000", "141041.114000", "141101.050000", "141101.054000", "141101.057000", "141101.060000", "141101.064000", "141101.067000", "141101.070000", "141101.073000", "141101.077000", "141101.080000", "141101.083000", "141101.087000", "141101.090000", "141101.093000", "141101.096000", "141101.099000", "141101.103000", "141101.106000", "141101.109000", "141101.113000", "141121.050000", "141121.054000", "141121.057000", "141121.060000", "141121.064000", "141121.067000", "141121.070000", "141121.073000", "141121.077000", "141121.080000", "141121.083000", "141121.086000", "141121.090000", "141121.093000", "141121.096000", "141121.099000", "141121.103000", "141121.106000", "141121.109000", "141121.113000", "141201.051000", "141201.055000", "141201.058000", "141201.061000", "141201.065000", "141201.068000", "141201.071000", "141201.074000", "141201.078000", "141201.081000", "141201.084000", "141201.088000", "141201.091000", "141201.094000", "141201.097000", "141201.100000", "141201.104000", "141201.107000", "141201.110000", "141201.114000", "141201.117000", "141201.120000", "141201.123000", "141201.127000", "141201.130000", "141201.133000", "141201.136000", "141201.140000", "141201.143000", "141201.146000", "141235.334000", "141235.338000", "141235.341000", "141235.345000", "141235.348000", "141235.351000", "141235.354000", "141235.358000", "141235.361000", "141235.364000", "141235.367000", "141235.371000", "141235.374000", "141235.377000", "141235.381000", "141235.384000", "141235.387000", "141235.390000", "141235.394000", "141235.397000", "141235.400000", "141235.403000", "141235.407000"],
      "InstanceNumber": [1, 2, 3, 4, 5, 6, 7, 8, 9, 10, 11, 12, 13, 14, 15, 16, 17, 18, 19, 20, 21, 22, 23, 24, 25, 26, 27, 28, 29, 30, 31, 32, 33, 34, 35, 36, 37, 38, 39, 40, 41, 42, 43, 44, 45, 46, 47, 48, 49, 50, 51, 52, 53, 54, 55, 56, 57, 58, 59, 60, 61, 62, 63, 64, 65, 66, 67, 68, 69, 70, 71, 72, 73, 74, 75, 76, 77, 78, 79, 80, 81, 82, 83, 84, 85, 86, 87, 88, 89, 90, 91, 92, 93, 94, 95, 96, 97, 98, 99, 100, 101, 102, 103, 104, 105, 106, 107, 108, 109, 110, 111, 112, 113, 114, 115, 116, 117, 118, 119, 120, 121, 122, 123, 124, 125, 126, 127, 128, 129, 130, 131, 132, 133, 134, 135, 136, 137, 138, 139, 140, 141, 142, 143, 144, 145, 146, 147, 148, 149, 150, 151, 152, 153, 154, 155],
      "LargestImagePixelValue": [40954, 40183, 39276, 38897, 38607, 38187, 39021, 38681, 37811, 38278, 37815, 38513, 38480, 38209, 38183, 38610, 38807, 38532, 38043, 38395, 38651, 38485, 38500, 38741, 38946, 38969, 38914, 38888, 38855, 38781, 38637, 38663, 38930, 39244, 38946, 38250, 38730, 38964, 39344, 38642, 39033, 38950, 39482, 39235, 38176, 38651, 38926, 39258, 38884, 38598, 38828, 39040, 38956, 38470, 38598, 38741, 38800, 38604, 39065, 38455, 38459, 38740, 38891, 38989, 38670, 38425, 38444, 38316, 38795, 38885, 38317, 38061, 38528, 38551, 38583, 38428, 39129, 38525, 38346, 38273, 37875, 38190, 37891, 38303, 38383, 37812, 38446, 38772, 38252, 38497, 38516, 38367, 37937, 38529, 37843, 38232, 38635, 38746, 38236, 38328, 37666, 38323, 38509, 38702, 38768, 38853, 38709, 38955, 37623, 38301, 37929, 38349, 38723, 38982, 38062, 38294, 38134, 38480, 38359, 38332, 38138, 37822, 37831, 38515, 38233, 38603, 37699, 38119, 37597, 38339, 38462, 38502, 38000, 37821, 38037, 38389, 38520, 37808, 38065, 38544, 38400, 38478, 38378, 38131, 37964, 38439, 38797, 38635, 38838, 38496, 38026, 37757, 37813, 37970, 38553],
      "WindowCenter": [10215.0, 10185.0, 10170.0, 10166.0, 10151.0, 10130.0, 10133.0, 10141.0, 10137.0, 10141.0, 10137.0, 10152.0, 10168.0, 10167.0, 10166.0, 10161.0, 10157.0, 10152.0, 10154.0, 10156.0, 10152.0, 10143.0, 10135.0, 10139.0, 10148.0, 10164.0, 10175.0, 10176.0, 10169.0, 10160.0, 10150.0, 10141.0, 10140.0, 10147.0, 10155.0, 10151.0, 10157.0, 10157.0, 10162.0, 10150.0, 10150.0, 10149.0, 10156.0, 10164.0, 10148.0, 10151.0, 10145.0, 10148.0, 10148.0, 10149.0, 10150.0, 10157.0, 10149.0, 10134.0, 10131.0, 10132.0, 10134.0, 10140.0, 10141.0, 10142.0, 10151.0, 10152.0, 10151.0, 10142.0, 10140.0, 10126.0, 10126.0, 10128.0, 10142.0, 10142.0, 10135.0, 10136.0, 10152.0, 10148.0, 10153.0, 10145.0, 10143.0, 10150.0, 10162.0, 10164.0, 10142.0, 10122.0, 10119.0, 10134.0, 10144.0, 10141.0, 10140.0, 10143.0, 10137.0, 10130.0, 10128.0, 10136.0, 10139.0, 10144.0, 10132.0, 10138.0, 10151.0, 10160.0, 10157.0, 10163.0, 10150.0, 10138.0, 10128.0, 10134.0, 10135.0, 10137.0, 10137.0, 10150.0, 10149.0, 10149.0, 10135.0, 10132.0, 10126.0, 10123.0, 10119.0, 10136.0, 10139.0, 10138.0, 10135.0, 10137.0, 10145.0, 10134.0, 10125.0, 10129.0, 10129.0, 10137.0, 10133.0, 10138.0, 10134.0, 10137.0, 10129.0, 10137.0, 10146.0, 10141.0, 10133.0, 10136.0, 10137.0, 10132.0, 10138.0, 10143.0, 10138.0, 10139.0, 10129.0, 10122.0, 10128.0, 10144.0, 10160.0, 10171.0, 10164.0, 10140.0, 10107.0, 10094.0, 10082.0, 10093.0, 10103.0],
      "WindowWidth": [21773.0, 21683.0, 21640.0, 21624.0, 21585.0, 21539.0, 21541.0, 21558.0, 21552.0, 21558.0, 21554.0, 21588.0, 21623.0, 21625.0, 21622.0, 21607.0, 21595.0, 21589.0, 21595.0, 21597.0, 21583.0, 21560.0, 21547.0, 21554.0, 21574.0, 21610.0, 21637.0, 21640.0, 21625.0, 21600.0, 21576.0, 21554.0, 21554.0, 21568.0, 21588.0, 21581.0, 21592.0, 21593.0, 21603.0, 21577.0, 21576.0, 21576.0, 21591.0, 21609.0, 21578.0, 21580.0, 21567.0, 21571.0, 21571.0, 21574.0, 21577.0, 21589.0, 21569.0, 21534.0, 21528.0, 21532.0, 21539.0, 21551.0, 21554.0, 21559.0, 21579.0, 21583.0, 21578.0, 21558.0, 21551.0, 21520.0, 21521.0, 21528.0, 21557.0, 21556.0, 21543.0, 21545.0, 21581.0, 21577.0, 21584.0, 21565.0, 21560.0, 21576.0, 21608.0, 21613.0, 21564.0, 21512.0, 21505.0, 21540.0, 21565.0, 21560.0, 21554.0, 21558.0, 21549.0, 21532.0, 21527.0, 21546.0, 21555.0, 21561.0, 21539.0, 21550.0, 21579.0, 21600.0, 21596.0, 21605.0, 21575.0, 21541.0, 21520.0, 21535.0, 21539.0, 21545.0, 21544.0, 21572.0, 21576.0, 21577.0, 21547.0, 21535.0, 21516.0, 21509.0, 21503.0, 21543.0, 21552.0, 21548.0, 21539.0, 21547.0, 21562.0, 21544.0, 21522.0, 21527.0, 21529.0, 21548.0, 21543.0, 21551.0, 21543.0, 21546.0, 21531.0, 21548.0, 21569.0, 21558.0, 21538.0, 21544.0, 21548.0, 21538.0, 21548.0, 21557.0, 21549.0, 21550.0, 21527.0, 21512.0, 21526.0, 21563.0, 21596.0, 21622.0, 21607.0, 21550.0, 21475.0, 21442.0, 21417.0, 21441.0, 21466.0]
    },
    "slices": {}
  }
}