{
  "AcquisitionMatrixPE": 104,
  "AcquisitionNumber": 1,
  "AcquisitionTime": "14:03:34.640000",
  "BandwidthPerPixelPhaseEncode": 17.17,
  "BaseResolution": 104,
  "BodyPartExamined": "BRAIN",
  "CoilCombinationMethod": "Sum of Squares",
  "ConsistencyInfo": "N4_VE11C_LATEST_20160120",
  "ConversionSoftware": "dcm2niix",
  "ConversionSoftwareVersion": "v1.0.20211006",
  "DerivedVendorReportedEchoSpacing": 0.000560011,
  "DeviceSerialNumber": "167006",
  "DwellTime": 2.1e-06,
  "EchoTime": 0.037,
  "EchoTime1": 0.037,
  "EchoTime2": 0.001,
  "EchoTrainLength": 104,
  "EffectiveEchoSpacing": 0.000560011,
  "FlipAngle": 52,
  "HeudiconvVersion": "0.10.0",
  "ImageComments": "Unaliased MB4/PE3/LB",
  "ImageOrientationPatientDICOM": [0.999253, 0.00306947, 0.0385145, 0.00715068, 0.964926, -0.262425],
  "ImageOrientationText": "Tra>Cor(-15.2)>Sag(2.2)",
  "ImageType": [
    "ORIGINAL",
    "PRIMARY",
    "P",
    "MB",
    "ND",
    "MOSAIC",
    "PHASE"
],
  "ImagingFrequency": 123.259,
  "InPlanePhaseEncodingDirectionDICOM": "COL",
  "InstitutionAddress": "Chemin Queen-Mary 4565,Montreal,District,CA,H3W 1W5",
  "InstitutionName": "IUGM",
  "InstitutionalDepartmentName": "Department",
  "MRAcquisitionType": "2D",
  "MagneticFieldStrength": 3,
  "Manufacturer": "Siemens",
  "ManufacturersModelName": "Prisma_fit",
  "MatrixCoilMode": "SENSE",
  "Modality": "MR",
  "MultibandAccelerationFactor": 4,
  "PartialFourier": 1,
  "PatientPosition": "HFS",
  "PercentPhaseFOV": 100,
  "PercentSampling": 100,
  "PhaseEncodingDirection": "j",
  "PhaseEncodingSteps": 104,
  "PhaseResolution": 1,
  "PixelBandwidth": 2290,
  "ProcedureStepDescription": "localizers^fLoc",
  "ProtocolName": "task_fLoc_run-1",
  "PulseSequenceDetails": "%CustomerSeq%\\cmrr_mbep2d_bold",
  "ReceiveCoilActiveElements": "HC1-7;NC1,2",
  "ReceiveCoilName": "HeadNeck_64",
  "ReconMatrixPE": 104,
  "RepetitionTime": 1.49,
  "SAR": 0.0565733,
  "ScanOptions": "FS",
  "ScanningSequence": "EP",
  "SequenceName": "epfid2d1_104",
  "SequenceVariant": "SK\\SS",
  "SeriesDescription": "task_fLoc_run-1",
  "SeriesNumber": 11,
  "ShimSetting": [641, -7222, -8790, 726, 67, 4, 35, -3],
  "SliceThickness": 2,
  "SliceTiming": [0, 0.785, 0.0975, 0.8825, 0.195, 0.98, 0.295, 1.0775, 0.3925, 1.175, 0.49, 1.275, 0.5875, 1.3725, 0.685, 0, 0.785, 0.0975, 0.8825, 0.195, 0.98, 0.295, 1.0775, 0.3925, 1.175, 0.49, 1.275, 0.5875, 1.3725, 0.685, 0, 0.785, 0.0975, 0.8825, 0.195, 0.98, 0.295, 1.0775, 0.3925, 1.175, 0.49, 1.275, 0.5875, 1.3725, 0.685, 0, 0.785, 0.0975, 0.8825, 0.195, 0.98, 0.295, 1.0775, 0.3925, 1.175, 0.49, 1.275, 0.5875, 1.3725, 0.685],
  "SoftwareVersions": "syngo MR E11",
  "SpacingBetweenSlices": 2,
  "StationName": "MRC35049",
  "TaskName": "fLoc",
  "TotalReadoutTime": 0.0576811,
  "TxRefAmp": 241.207,
  "WipMemBlock": "72bbb334-7528-4252-ab61-5e496f0e9f25||Sequence: R016 ve11c/master r/e634e98; Dec 19 2017 11:00:25 by eja",
  "dcmmeta_affine": [
    [-1.9985066652297974, 0.014301354996860027, 0.07593826204538345, 105.92222595214844],
    [-0.006138938013464212, 1.92985200881958, -0.5250082015991211, -73.78701782226562],
    [0.07702896744012833, 0.5248492360115051, 1.9283671379089355, -65.42401885986328],
    [0.0, 0.0, 0.0, 1.0]
],
  "dcmmeta_reorient_transform": [
    [0.0, -1.0, 0.0, 103.0],
    [1.0, 0.0, 0.0, 0.0],
    [0.0, 0.0, 1.0, 0.0],
    [0.0, 0.0, 0.0, 1.0]
],
  "dcmmeta_shape": [104, 104, 60, 155],
  "dcmmeta_slice_dim": 2,
  "dcmmeta_version": 0.6,
  "global": {
    "const": {
      "AcquisitionMatrix": [104, 0, 0, 104],
      "AngioFlag": "N",
      "BitsAllocated": 16,
      "BitsStored": 16,
      "BodyPartExamined": "BRAIN",
      "Columns": 832,
      "EchoNumbers": 1,
      "EchoTime": 37.0,
      "EchoTrainLength": 104,
      "FlipAngle": 52.0,
      "HighBit": 15,
      "ImageOrientationPatient": [0.99925332776369, 0.00306946889667, 0.03851448187222, 0.0071506776314, 0.96492599717157, -0.2624246325936],
      "ImagePositionPatient": [-840.0573793435, -829.68843565452, 151.64204224464],
      "ImageType": [
        "ORIGINAL",
        "PRIMARY",
        "P",
        "MB",
        "ND",
        "MOSAIC"
],
      "ImagedNucleus": "1H",
      "ImagingFrequency": 123.25893,
      "InPlanePhaseEncodingDirection": "COL",
      "LargestImagePixelValue": 4095,
      "MRAcquisitionType": "2D",
      "MagneticFieldStrength": 3.0,
      "Manufacturer": "SIEMENS",
      "ManufacturerModelName": "Prisma_fit",
      "Modality": "MR",
      "NumberOfAverages": 1.0,
      "NumberOfPhaseEncodingSteps": 104,
      "PercentPhaseFieldOfView": 100.0,
      "PercentSampling": 100.0,
      "PerformedProcedureStepStartTime": "140017.154000",
      "PhotometricInterpretation": "MONOCHROME2",
      "PixelBandwidth": 2290.0,
      "PixelRepresentation": 0,
      "PixelSpacing": [2.0, 2.0],
      "ProtocolName": "task_fLoc_run-1",
      "RepetitionTime": 1490.0,
      "RescaleIntercept": -4096.0,
      "RescaleSlope": 2.0,
      "RescaleType": "US",
      "Rows": 832,
      "SAR": 0.05657333245205,
      "SamplesPerPixel": 1,
      "ScanOptions": "FS",
      "ScanningSequence": "EP",
      "SequenceName": "epfid2d1_104",
      "SequenceVariant": [
        "SK",
        "SS"
],
      "SeriesDescription": "task_fLoc_run-1",
      "SeriesNumber": 11,
      "SeriesTime": "140438.693000",
      "SliceLocation": -39.689597534886,
      "SliceThickness": 2.0,
      "SmallestImagePixelValue": 0,
      "SoftwareVersions": "syngo MR E11",
      "SpacingBetweenSlices": 2.0000000318967,
      "SpecificCharacterSet": "ISO_IR 100",
      "StudyID": "1",
      "StudyTime": "140017.086000",
      "TransmitCoilName": "Body",
      "VariableFlipAngleFlag": "N",
      "WindowCenterWidthExplanation": "Algo1",
      "dBdt": 0.0},
    "slices": {}
  },
  "time": {
    "samples": {
      "AcquisitionNumber": [1, 2, 3, 4, 5, 6, 7, 8, 9, 10, 11, 12, 13, 14, 15, 16, 17, 18, 19, 20, 21, 22, 23, 24, 25, 26, 27, 28, 29, 30, 31, 32, 33, 34, 35, 36, 37, 38, 39, 40, 41, 42, 43, 44, 45, 46, 47, 48, 49, 50, 51, 52, 53, 54, 55, 56, 57, 58, 59, 60, 61, 62, 63, 64, 65, 66, 67, 68, 69, 70, 71, 72, 73, 74, 75, 76, 77, 78, 79, 80, 81, 82, 83, 84, 85, 86, 87, 88, 89, 90, 91, 92, 93, 94, 95, 96, 97, 98, 99, 100, 101, 102, 103, 104, 105, 106, 107, 108, 109, 110, 111, 112, 113, 114, 115, 116, 117, 118, 119, 120, 121, 122, 123, 124, 125, 126, 127, 128, 129, 130, 131, 132, 133, 134, 135, 136, 137, 138, 139, 140, 141, 142, 143, 144, 145, 146, 147, 148, 149, 150, 151, 152, 153, 154, 155],
      "AcquisitionTime": ["140334.640000", "140336.130000", "140337.620000", "140339.110000", "140340.600000", "140342.090000", "140343.580000", "140345.070000", "140346.560000", "140348.050000", "140349.540000", "140351.030000", "140352.520000", "140354.010000", "140355.500000", "140356.990000", "140358.480000", "140359.970000", "140401.460000", "140402.950000", "140404.440000", "140405.930000", "140407.420000", "140408.910000", "140410.400000", "140411.890000", "140413.380000", "140414.870000", "140416.360000", "140417.850000", "140419.340000", "140420.830000", "140422.320000", "140423.810000", "140425.300000", "140426.790000", "140428.280000", "140429.770000", "140431.260000", "140432.750000", "140434.240000", "140435.730000", "140437.220000", "140438.710000", "140440.200000", "140441.690000", "140443.180000", "140444.670000", "140446.160000", "140447.650000", "140449.140000", "140450.630000", "140452.120000", "140453.610000", "140455.100000", "140456.590000", "140458.080000", "140459.570000", "140501.060000", "140502.550000", "140504.040000", "140505.530000", "140507.020000", "140508.510000", "140510.000000", "140511.490000", "140512.980000", "140514.470000", "140515.960000", "140517.450000", "140518.940000", "140520.430000", "140521.920000", "140523.410000", "140524.900000", "140526.390000", "140527.880000", "140529.370000", "140530.860000", "140532.350000", "140533.840000", "140535.330000", "140536.820000", "140538.310000", "140539.800000", "140541.290000", "140542.780000", "140544.270000", "140545.760000", "140547.250000", "140548.740000", "140550.230000", "140551.720000", "140553.210000", "140554.700000", "140556.190000", "140557.680000", "140559.170000", "140600.660000", "140602.150000", "140603.640000", "140605.130000", "140606.620000", "140608.110000", "140609.600000", "140611.090000", "140612.580000", "140614.070000", "140615.560000", "140617.050000", "140618.540000", "140620.030000", "140621.520000", "140623.010000", "140624.500000", "140625.990000", "140627.480000", "140628.970000", "140630.460000", "140631.950000", "140633.440000", "140634.930000", "140636.420000", "140637.910000", "140639.400000", "140640.890000", "140642.380000", "140643.870000", "140645.360000", "140646.850000", "140648.340000", "140649.830000", "140651.320000", "140652.810000", "140654.300000", "140655.790000", "140657.280000", "140658.770000", "140700.260000", "140701.750000", "140703.240000", "140704.730000", "140706.220000", "140707.710000", "140709.200000", "140710.690000", "140712.180000", "140713.670000", "140715.160000", "140716.650000", "140718.140000", "140719.630000", "140721.120000", "140722.610000", "140724.100000"],
      "ContentTime": ["140438.695000", "140438.698000", "140438.700000", "140438.703000", "140438.708000", "140438.711000", "140438.713000", "140438.716000", "140458.699000", "140458.701000", "140458.704000", "140458.706000", "140458.709000", "140458.711000", "140458.714000", "140458.716000", "140458.719000", "140458.721000", "140458.723000", "140458.726000", "140458.728000", "140458.731000", "140458.735000", "140458.737000", "140458.740000", "140458.742000", "140458.745000", "140458.747000", "140518.710000", "140518.713000", "140518.715000", "140518.718000", "140518.720000", "140518.723000", "140518.725000", "140518.728000", "140518.730000", "140518.733000", "140518.735000", "140518.738000", "140518.740000", "140518.743000", "140518.745000", "140518.747000", "140518.750000", "140518.752000", "140518.755000", "140518.757000", "140539.011000", "140539.014000", "140539.016000", "140539.019000", "140539.021000", "140539.024000", "140539.026000", "140539.029000", "140539.031000", "140539.034000", "140539.036000", "140539.039000", "140539.041000", "140539.044000", "140539.046000", "140539.048000", "140539.051000", "140539.053000", "140539.056000", "140539.058000", "140558.714000", "140558.716000", "140558.719000", "140558.721000", "140558.724000", "140558.726000", "140558.729000", "140558.731000", "140558.733000", "140558.736000", "140558.738000", "140558.741000", "140558.743000", "140558.746000", "140558.748000", "140558.751000", "140558.753000", "140558.756000", "140558.758000", "140558.761000", "140618.713000", "140618.715000", "140618.718000", "140618.720000", "140618.723000", "140618.725000", "140618.728000", "140618.730000", "140618.733000", "140618.735000", "140618.738000", "140618.742000", "140618.745000", "140618.747000", "140618.750000", "140618.752000", "140618.755000", "140618.757000", "140618.759000", "140618.762000", "140618.764000", "140658.720000", "140658.723000", "140658.726000", "140658.728000", "140658.731000", "140658.733000", "140658.735000", "140658.738000", "140658.740000", "140658.743000", "140658.745000", "140658.748000", "140658.750000", "140658.753000", "140658.762000", "140658.765000", "140658.767000", "140658.770000", "140658.772000", "140658.775000", "140658.777000", "140658.780000", "140658.782000", "140658.785000", "140658.787000", "140658.790000", "140658.792000", "140726.747000", "140726.751000", "140726.753000", "140726.756000", "140726.758000", "140726.761000", "140726.763000", "140726.766000", "140726.768000", "140726.771000", "140726.773000", "140726.776000", "140726.778000", "140726.781000", "140726.784000", "140726.786000", "140726.789000", "140726.791000", "140726.794000"],
      "InstanceCreationTime": ["140438.695000", "140438.698000", "140438.700000", "140438.703000", "140438.708000", "140438.711000", "140438.713000", "140438.716000", "140458.699000", "140458.701000", "140458.704000", "140458.706000", "140458.709000", "140458.711000", "140458.714000", "140458.716000", "140458.719000", "140458.721000", "140458.723000", "140458.726000", "140458.728000", "140458.731000", "140458.735000", "140458.737000", "140458.740000", "140458.742000", "140458.745000", "140458.747000", "140518.710000", "140518.713000", "140518.715000", "140518.718000", "140518.720000", "140518.723000", "140518.725000", "140518.728000", "140518.730000", "140518.733000", "140518.735000", "140518.738000", "140518.740000", "140518.743000", "140518.745000", "140518.747000", "140518.750000", "140518.752000", "140518.755000", "140518.757000", "140539.011000", "140539.014000", "140539.016000", "140539.019000", "140539.021000", "140539.024000", "140539.026000", "140539.029000", "140539.031000", "140539.034000", "140539.036000", "140539.039000", "140539.041000", "140539.044000", "140539.046000", "140539.048000", "140539.051000", "140539.053000", "140539.056000", "140539.058000", "140558.714000", "140558.716000", "140558.719000", "140558.721000", "140558.724000", "140558.726000", "140558.729000", "140558.731000", "140558.733000", "140558.736000", "140558.738000", "140558.741000", "140558.743000", "140558.746000", "140558.748000", "140558.751000", "140558.753000", "140558.756000", "140558.758000", "140558.761000", "140618.713000", "140618.715000", "140618.718000", "140618.720000", "140618.723000", "140618.725000", "140618.728000", "140618.730000", "140618.733000", "140618.735000", "140618.738000", "140618.742000", "140618.745000", "140618.747000", "140618.750000", "140618.752000", "140618.755000", "140618.757000", "140618.759000", "140618.762000", "140618.764000", "140658.720000", "140658.723000", "140658.726000", "140658.728000", "140658.731000", "140658.733000", "140658.735000", "140658.738000", "140658.740000", "140658.743000", "140658.745000", "140658.748000", "140658.750000", "140658.753000", "140658.762000", "140658.765000", "140658.767000", "140658.770000", "140658.772000", "140658.775000", "140658.777000", "140658.780000", "140658.782000", "140658.785000", "140658.787000", "140658.790000", "140658.792000", "140726.747000", "140726.751000", "140726.753000", "140726.756000", "140726.758000", "140726.761000", "140726.763000", "140726.766000", "140726.768000", "140726.771000", "140726.773000", "140726.776000", "140726.778000", "140726.781000", "140726.784000", "140726.786000", "140726.789000", "140726.791000", "140726.794000"],
      "InstanceNumber": [1, 2, 3, 4, 5, 6, 7, 8, 9, 10, 11, 12, 13, 14, 15, 16, 17, 18, 19, 20, 21, 22, 23, 24, 25, 26, 27, 28, 29, 30, 31, 32, 33, 34, 35, 36, 37, 38, 39, 40, 41, 42, 43, 44, 45, 46, 47, 48, 49, 50, 51, 52, 53, 54, 55, 56, 57, 58, 59, 60, 61, 62, 63, 64, 65, 66, 67, 68, 69, 70, 71, 72, 73, 74, 75, 76, 77, 78, 79, 80, 81, 82, 83, 84, 85, 86, 87, 88, 89, 90, 91, 92, 93, 94, 95, 96, 97, 98, 99, 100, 101, 102, 103, 104, 105, 106, 107, 108, 109, 110, 111, 112, 113, 114, 115, 116, 117, 118, 119, 120, 121, 122, 123, 124, 125, 126, 127, 128, 129, 130, 131, 132, 133, 134, 135, 136, 137, 138, 139, 140, 141, 142, 143, 144, 145, 146, 147, 148, 149, 150, 151, 152, 153, 154, 155],
      "WindowCenter": [4764.0, 4760.0, 4756.0, 4762.0, 4758.0, 4764.0, 4760.0, 4764.0, 4760.0, 4758.0, 4758.0, 4762.0, 4760.0, 4760.0, 4760.0, 4762.0, 4762.0, 4760.0, 4764.0, 4762.0, 4760.0, 4758.0, 4762.0, 4764.0, 4736.0, 4760.0, 4756.0, 4760.0, 4760.0, 4762.0, 4760.0, 4760.0, 4760.0, 4760.0, 4758.0, 4758.0, 4736.0, 4760.0, 4760.0, 4762.0, 4760.0, 4760.0, 4756.0, 4762.0, 4760.0, 4760.0, 4760.0, 4758.0, 4758.0, 4760.0, 4762.0, 4760.0, 4758.0, 4758.0, 4760.0, 4762.0, 4760.0, 4760.0, 4758.0, 4762.0, 4760.0, 4760.0, 4760.0, 4738.0, 4762.0, 4764.0, 4758.0, 4762.0, 4758.0, 4762.0, 4762.0, 4758.0, 4758.0, 4758.0, 4762.0, 4764.0, 4762.0, 4738.0, 4758.0, 4760.0, 4762.0, 4760.0, 4760.0, 4758.0, 4756.0, 4762.0, 4758.0, 4762.0, 4736.0, 4758.0, 4738.0, 4762.0, 4760.0, 4762.0, 4760.0, 4758.0, 4762.0, 4766.0, 4736.0, 4758.0, 4760.0, 4762.0, 4738.0, 4764.0, 4760.0, 4762.0, 4758.0, 4764.0, 4760.0, 4760.0, 4762.0, 4758.0, 4760.0, 4738.0, 4760.0, 4758.0, 4762.0, 4760.0, 4764.0, 4764.0, 4760.0, 4762.0, 4762.0, 4762.0, 4762.0, 4760.0, 4762.0, 4758.0, 4758.0, 4760.0, 4762.0, 4764.0, 4762.0, 4762.0, 4764.0, 4758.0, 4762.0, 4758.0, 4764.0, 4760.0, 4760.0, 4762.0, 4758.0, 4762.0, 4760.0, 4736.0, 4760.0, 4758.0, 4762.0, 4760.0, 4760.0, 4762.0, 4762.0, 4762.0, 4764.0],
      "WindowWidth": [18582.0, 18578.0, 18572.0, 18578.0, 18574.0, 18582.0, 18580.0, 18586.0, 18576.0, 18578.0, 18576.0, 18580.0, 18578.0, 18582.0, 18580.0, 18582.0, 18580.0, 18576.0, 18582.0, 18576.0, 18578.0, 18574.0, 18580.0, 18580.0, 18540.0, 18580.0, 18572.0, 18580.0, 18580.0, 18582.0, 18586.0, 18582.0, 18580.0, 18574.0, 18580.0, 18578.0, 18546.0, 18584.0, 18574.0, 18578.0, 18584.0, 18580.0, 18574.0, 18580.0, 18576.0, 18580.0, 18576.0, 18576.0, 18576.0, 18578.0, 18576.0, 18576.0, 18576.0, 18580.0, 18578.0, 18580.0, 18576.0, 18580.0, 18576.0, 18584.0, 18576.0, 18578.0, 18576.0, 18544.0, 18576.0, 18576.0, 18578.0, 18580.0, 18576.0, 18576.0, 18582.0, 18576.0, 18574.0, 18578.0, 18576.0, 18582.0, 18582.0, 18548.0, 18574.0, 18576.0, 18578.0, 18578.0, 18584.0, 18574.0, 18574.0, 18582.0, 18578.0, 18582.0, 18540.0, 18576.0, 18550.0, 18582.0, 18576.0, 18580.0, 18574.0, 18574.0, 18578.0, 18582.0, 18544.0, 18576.0, 18580.0, 18584.0, 18546.0, 18582.0, 18578.0, 18578.0, 18576.0, 18582.0, 18576.0, 18580.0, 18578.0, 18576.0, 18578.0, 18548.0, 18578.0, 18578.0, 18580.0, 18576.0, 18582.0, 18580.0, 18580.0, 18580.0, 18576.0, 18582.0, 18580.0, 18574.0, 18578.0, 18578.0, 18576.0, 18580.0, 18584.0, 18580.0, 18578.0, 18580.0, 18584.0, 18574.0, 18582.0, 18576.0, 18584.0, 18578.0, 18582.0, 18576.0, 18578.0, 18578.0, 18578.0, 18546.0, 18582.0, 18578.0, 18580.0, 18576.0, 18578.0, 18578.0, 18580.0, 18580.0, 18578.0]
    },
    "slices": {}
  }
}