{
  "AcquisitionMatrixPE": 104,
  "AcquisitionNumber": 1,
  "AcquisitionTime": "13:59:43.227500",
  "BandwidthPerPixelPhaseEncode": 17.17,
  "BaseResolution": 104,
  "BodyPartExamined": "BRAIN",
  "CoilCombinationMethod": "Sum of Squares",
  "ConsistencyInfo": "N4_VE11C_LATEST_20160120",
  "ConversionSoftware": "dcm2niix",
  "ConversionSoftwareVersion": "v1.0.20211006",
  "DerivedVendorReportedEchoSpacing": 0.000560011,
  "DeviceSerialNumber": "167006",
  "DwellTime": 2.1e-06,
  "EchoTime": 0.037,
  "EchoTime1": 0.037,
  "EchoTime2": 0.001,
  "EchoTrainLength": 104,
  "EffectiveEchoSpacing": 0.000560011,
  "FlipAngle": 52,
  "HeudiconvVersion": "0.10.0",
  "ImageComments": "Unaliased MB4/PE3/LB",
  "ImageOrientationPatientDICOM": [0.997587, 0.0180176, 0.0670547, -0.00017416, 0.966391, -0.257078],
  "ImageOrientationText": "Tra>Cor(-14.9)>Sag(4.0)",
  "ImageType": [
    "ORIGINAL",
    "PRIMARY",
    "P",
    "MB",
    "ND",
    "MOSAIC",
    "PHASE"
],
  "ImagingFrequency": 123.259,
  "InPlanePhaseEncodingDirectionDICOM": "COL",
  "InstitutionAddress": "Chemin Queen-Mary 4565,Montreal,District,CA,H3W 1W5",
  "InstitutionName": "IUGM",
  "InstitutionalDepartmentName": "Department",
  "MRAcquisitionType": "2D",
  "MagneticFieldStrength": 3,
  "Manufacturer": "Siemens",
  "ManufacturersModelName": "Prisma_fit",
  "MatrixCoilMode": "SENSE",
  "Modality": "MR",
  "MultibandAccelerationFactor": 4,
  "PartialFourier": 1,
  "PatientPosition": "HFS",
  "PercentPhaseFOV": 100,
  "PercentSampling": 100,
  "PhaseEncodingDirection": "j",
  "PhaseEncodingSteps": 104,
  "PhaseResolution": 1,
  "PixelBandwidth": 2290,
  "ProcedureStepDescription": "localizers^fLoc",
  "ProtocolName": "task_fLoc_run-1",
  "PulseSequenceDetails": "%CustomerSeq%\\cmrr_mbep2d_bold",
  "ReceiveCoilActiveElements": "HC1-7;NC1,2",
  "ReceiveCoilName": "HeadNeck_64",
  "ReconMatrixPE": 104,
  "RepetitionTime": 1.49,
  "SAR": 0.0504053,
  "ScanOptions": "FS",
  "ScanningSequence": "EP",
  "SequenceName": "epfid2d1_104",
  "SequenceVariant": "SK\\SS",
  "SeriesDescription": "task_fLoc_run-1",
  "SeriesNumber": 11,
  "ShimSetting": [656, -7210, -8792, 689, 99, 29, 42, 0],
  "SliceThickness": 2,
  "SliceTiming": [0, 0.7825, 0.0975, 0.88, 0.195, 0.98, 0.2925, 1.0775, 0.39, 1.175, 0.49, 1.2725, 0.5875, 1.37, 0.685, 0, 0.7825, 0.0975, 0.88, 0.195, 0.98, 0.2925, 1.0775, 0.39, 1.175, 0.49, 1.2725, 0.5875, 1.37, 0.685, 0, 0.7825, 0.0975, 0.88, 0.195, 0.98, 0.2925, 1.0775, 0.39, 1.175, 0.49, 1.2725, 0.5875, 1.37, 0.685, 0, 0.7825, 0.0975, 0.88, 0.195, 0.98, 0.2925, 1.0775, 0.39, 1.175, 0.49, 1.2725, 0.5875, 1.37, 0.685],
  "SoftwareVersions": "syngo MR E11",
  "SpacingBetweenSlices": 2,
  "StationName": "MRC35049",
  "TaskName": "fLoc",
  "TotalReadoutTime": 0.0576811,
  "TxRefAmp": 240.07,
  "WipMemBlock": "5eeb6615-ba74-44e2-acab-3c8d88b0b8b5||Sequence: R016 ve11c/master r/e634e98; Dec 19 2017 11:00:25 by eja",
  "dcmmeta_affine": [
    [-1.9951732158660889, -0.0003483192704152316, 0.13886594772338867, 105.77143859863281],
    [-0.03603522107005119, 1.9327811002731323, -0.5128923654556274, -72.58175659179688],
    [0.13410942256450653, 0.5141565799713135, 1.928122878074646, -66.28749084472656],
    [0.0, 0.0, 0.0, 1.0]
],
  "dcmmeta_reorient_transform": [
    [0.0, -1.0, 0.0, 103.0],
    [1.0, 0.0, 0.0, 0.0],
    [0.0, 0.0, 1.0, 0.0],
    [0.0, 0.0, 0.0, 1.0]
],
  "dcmmeta_shape": [104, 104, 60, 155],
  "dcmmeta_slice_dim": 2,
  "dcmmeta_version": 0.6,
  "global": {
    "const": {
      "AcquisitionMatrix": [104, 0, 0, 104],
      "AngioFlag": "N",
      "BitsAllocated": 16,
      "BitsStored": 16,
      "BodyPartExamined": "BRAIN",
      "Columns": 832,
      "EchoNumbers": 1,
      "EchoTime": 37.0,
      "EchoTrainLength": 104,
      "FlipAngle": 52.0,
      "HighBit": 15,
      "ImageOrientationPatient": [0.99758660351782, 0.0180176106516, 0.06705471041012, -0.0001741596387, 0.96639056670104, -0.2570782804121],
      "ImagePositionPatient": [-831.85181844377, -843.14385645657, 125.0077904785],
      "ImageType": [
        "ORIGINAL",
        "PRIMARY",
        "P",
        "MB",
        "ND",
        "MOSAIC"
],
      "ImagedNucleus": "1H",
      "ImagingFrequency": 123.258924,
      "InPlanePhaseEncodingDirection": "COL",
      "LargestImagePixelValue": 4095,
      "MRAcquisitionType": "2D",
      "MagneticFieldStrength": 3.0,
      "Manufacturer": "SIEMENS",
      "ManufacturerModelName": "Prisma_fit",
      "Modality": "MR",
      "NumberOfAverages": 1.0,
      "NumberOfPhaseEncodingSteps": 104,
      "PercentPhaseFieldOfView": 100.0,
      "PercentSampling": 100.0,
      "PerformedProcedureStepStartTime": "135510.345000",
      "PhotometricInterpretation": "MONOCHROME2",
      "PixelBandwidth": 2290.0,
      "PixelRepresentation": 0,
      "PixelSpacing": [2.0, 2.0],
      "ProtocolName": "task_fLoc_run-1",
      "RepetitionTime": 1490.0,
      "RescaleIntercept": -4096.0,
      "RescaleSlope": 2.0,
      "RescaleType": "US",
      "Rows": 832,
      "SAR": 0.05040535091094,
      "SamplesPerPixel": 1,
      "ScanOptions": "FS",
      "ScanningSequence": "EP",
      "SequenceName": "epfid2d1_104",
      "SequenceVariant": [
        "SK",
        "SS"
],
      "SeriesDescription": "task_fLoc_run-1",
      "SeriesNumber": 11,
      "SeriesTime": "140058.891000",
      "SliceLocation": -37.947877619407,
      "SliceThickness": 2.0,
      "SmallestImagePixelValue": 0,
      "SoftwareVersions": "syngo MR E11",
      "SpacingBetweenSlices": 1.999999988129,
      "SpecificCharacterSet": "ISO_IR 100",
      "StudyID": "1",
      "StudyTime": "135510.263000",
      "TransmitCoilName": "Body",
      "VariableFlipAngleFlag": "N",
      "WindowCenterWidthExplanation": "Algo1",
      "dBdt": 0.0},
    "slices": {}
  },
  "time": {
    "samples": {
      "AcquisitionNumber": [1, 2, 3, 4, 5, 6, 7, 8, 9, 10, 11, 12, 13, 14, 15, 16, 17, 18, 19, 20, 21, 22, 23, 24, 25, 26, 27, 28, 29, 30, 31, 32, 33, 34, 35, 36, 37, 38, 39, 40, 41, 42, 43, 44, 45, 46, 47, 48, 49, 50, 51, 52, 53, 54, 55, 56, 57, 58, 59, 60, 61, 62, 63, 64, 65, 66, 67, 68, 69, 70, 71, 72, 73, 74, 75, 76, 77, 78, 79, 80, 81, 82, 83, 84, 85, 86, 87, 88, 89, 90, 91, 92, 93, 94, 95, 96, 97, 98, 99, 100, 101, 102, 103, 104, 105, 106, 107, 108, 109, 110, 111, 112, 113, 114, 115, 116, 117, 118, 119, 120, 121, 122, 123, 124, 125, 126, 127, 128, 129, 130, 131, 132, 133, 134, 135, 136, 137, 138, 139, 140, 141, 142, 143, 144, 145, 146, 147, 148, 149, 150, 151, 152, 153, 154, 155],
      "AcquisitionTime": ["135943.227500", "135944.717500", "135946.207500", "135947.697500", "135949.187500", "135950.677500", "135952.167500", "135953.657500", "135955.147500", "135956.637500", "135958.127500", "135959.617500", "140001.107500", "140002.597500", "140004.087500", "140005.577500", "140007.067500", "140008.557500", "140010.047500", "140011.537500", "140013.027500", "140014.517500", "140016.007500", "140017.497500", "140018.987500", "140020.477500", "140021.967500", "140023.457500", "140024.947500", "140026.437500", "140027.927500", "140029.417500", "140030.907500", "140032.397500", "140033.887500", "140035.377500", "140036.867500", "140038.357500", "140039.847500", "140041.337500", "140042.827500", "140044.317500", "140045.807500", "140047.297500", "140048.787500", "140050.277500", "140051.767500", "140053.257500", "140054.747500", "140056.237500", "140057.727500", "140059.217500", "140100.707500", "140102.197500", "140103.687500", "140105.177500", "140106.667500", "140108.157500", "140109.647500", "140111.137500", "140112.627500", "140114.117500", "140115.607500", "140117.097500", "140118.587500", "140120.077500", "140121.567500", "140123.057500", "140124.547500", "140126.037500", "140127.527500", "140129.017500", "140130.507500", "140131.997500", "140133.487500", "140134.977500", "140136.467500", "140137.957500", "140139.447500", "140140.937500", "140142.427500", "140143.917500", "140145.407500", "140146.897500", "140148.387500", "140149.877500", "140151.367500", "140152.857500", "140154.347500", "140155.837500", "140157.327500", "140158.817500", "140200.307500", "140201.797500", "140203.287500", "140204.777500", "140206.267500", "140207.757500", "140209.247500", "140210.737500", "140212.227500", "140213.717500", "140215.207500", "140216.697500", "140218.187500", "140219.677500", "140221.167500", "140222.657500", "140224.147500", "140225.637500", "140227.127500", "140228.617500", "140230.107500", "140231.597500", "140233.087500", "140234.577500", "140236.067500", "140237.557500", "140239.047500", "140240.537500", "140242.027500", "140243.517500", "140245.007500", "140246.497500", "140247.987500", "140249.477500", "140250.967500", "140252.457500", "140253.947500", "140255.437500", "140256.927500", "140258.417500", "140259.907500", "140301.397500", "140302.887500", "140304.377500", "140305.867500", "140307.357500", "140308.847500", "140310.337500", "140311.827500", "140313.317500", "140314.807500", "140316.297500", "140317.787500", "140319.277500", "140320.767500", "140322.257500", "140323.747500", "140325.237500", "140326.727500", "140328.217500", "140329.707500", "140331.197500", "140332.687500"],
      "ContentTime": ["140058.893000", "140058.896000", "140058.899000", "140058.901000", "140058.904000", "140058.906000", "140058.909000", "140058.911000", "140058.914000", "140058.916000", "140058.919000", "140058.921000", "140058.924000", "140058.926000", "140058.929000", "140058.931000", "140058.934000", "140058.936000", "140058.939000", "140058.941000", "140058.944000", "140058.946000", "140118.833000", "140118.836000", "140118.839000", "140118.841000", "140118.843000", "140118.846000", "140118.849000", "140118.851000", "140118.854000", "140118.856000", "140118.859000", "140118.861000", "140118.864000", "140118.866000", "140118.869000", "140118.878000", "140118.880000", "140118.883000", "140118.885000", "140118.888000", "140138.839000", "140138.841000", "140138.844000", "140138.847000", "140138.849000", "140138.852000", "140138.854000", "140138.857000", "140138.859000", "140138.862000", "140138.864000", "140138.867000", "140138.869000", "140138.872000", "140138.874000", "140138.886000", "140138.888000", "140138.891000", "140138.893000", "140138.896000", "140158.849000", "140158.852000", "140158.854000", "140158.857000", "140158.859000", "140158.862000", "140158.864000", "140158.867000", "140158.869000", "140158.872000", "140158.874000", "140158.877000", "140158.880000", "140158.882000", "140158.885000", "140158.887000", "140158.890000", "140158.892000", "140158.895000", "140158.897000", "140218.843000", "140218.845000", "140218.848000", "140218.851000", "140218.853000", "140218.855000", "140218.858000", "140218.860000", "140218.863000", "140218.865000", "140218.868000", "140218.870000", "140218.873000", "140218.875000", "140218.878000", "140218.880000", "140218.883000", "140218.885000", "140218.888000", "140218.890000", "140258.880000", "140258.883000", "140258.885000", "140258.888000", "140258.890000", "140258.893000", "140258.895000", "140258.906000", "140258.908000", "140258.911000", "140258.913000", "140258.916000", "140258.918000", "140258.921000", "140258.923000", "140258.926000", "140258.928000", "140258.931000", "140258.933000", "140258.936000", "140258.938000", "140258.941000", "140258.943000", "140258.946000", "140258.948000", "140258.951000", "140258.953000", "140258.956000", "140335.346000", "140335.350000", "140335.352000", "140335.355000", "140335.358000", "140335.360000", "140335.363000", "140335.366000", "140335.368000", "140335.371000", "140335.374000", "140335.377000", "140335.380000", "140335.382000", "140335.385000", "140335.388000", "140335.391000", "140335.393000", "140335.396000", "140335.399000", "140335.401000", "140335.404000", "140335.407000", "140335.409000", "140335.412000"],
      "InstanceCreationTime": ["140058.893000", "140058.896000", "140058.899000", "140058.901000", "140058.904000", "140058.906000", "140058.909000", "140058.911000", "140058.914000", "140058.916000", "140058.919000", "140058.921000", "140058.924000", "140058.926000", "140058.929000", "140058.931000", "140058.934000", "140058.936000", "140058.939000", "140058.941000", "140058.944000", "140058.946000", "140118.833000", "140118.836000", "140118.839000", "140118.841000", "140118.843000", "140118.846000", "140118.849000", "140118.851000", "140118.854000", "140118.856000", "140118.859000", "140118.861000", "140118.864000", "140118.866000", "140118.869000", "140118.878000", "140118.880000", "140118.883000", "140118.885000", "140118.888000", "140138.839000", "140138.841000", "140138.844000", "140138.847000", "140138.849000", "140138.852000", "140138.854000", "140138.857000", "140138.859000", "140138.862000", "140138.864000", "140138.867000", "140138.869000", "140138.872000", "140138.874000", "140138.886000", "140138.888000", "140138.891000", "140138.893000", "140138.896000", "140158.849000", "140158.852000", "140158.854000", "140158.857000", "140158.859000", "140158.862000", "140158.864000", "140158.867000", "140158.869000", "140158.872000", "140158.874000", "140158.877000", "140158.880000", "140158.882000", "140158.885000", "140158.887000", "140158.890000", "140158.892000", "140158.895000", "140158.897000", "140218.843000", "140218.845000", "140218.848000", "140218.851000", "140218.853000", "140218.855000", "140218.858000", "140218.860000", "140218.863000", "140218.865000", "140218.868000", "140218.870000", "140218.873000", "140218.875000", "140218.878000", "140218.880000", "140218.883000", "140218.885000", "140218.888000", "140218.890000", "140258.880000", "140258.883000", "140258.885000", "140258.888000", "140258.890000", "140258.893000", "140258.895000", "140258.906000", "140258.908000", "140258.911000", "140258.913000", "140258.916000", "140258.918000", "140258.921000", "140258.923000", "140258.926000", "140258.928000", "140258.931000", "140258.933000", "140258.936000", "140258.938000", "140258.941000", "140258.943000", "140258.946000", "140258.948000", "140258.951000", "140258.953000", "140258.956000", "140335.346000", "140335.350000", "140335.352000", "140335.355000", "140335.358000", "140335.360000", "140335.363000", "140335.366000", "140335.368000", "140335.371000", "140335.374000", "140335.377000", "140335.380000", "140335.382000", "140335.385000", "140335.388000", "140335.391000", "140335.393000", "140335.396000", "140335.399000", "140335.401000", "140335.404000", "140335.407000", "140335.409000", "140335.412000"],
      "InstanceNumber": [1, 2, 3, 4, 5, 6, 7, 8, 9, 10, 11, 12, 13, 14, 15, 16, 17, 18, 19, 20, 21, 22, 23, 24, 25, 26, 27, 28, 29, 30, 31, 32, 33, 34, 35, 36, 37, 38, 39, 40, 41, 42, 43, 44, 45, 46, 47, 48, 49, 50, 51, 52, 53, 54, 55, 56, 57, 58, 59, 60, 61, 62, 63, 64, 65, 66, 67, 68, 69, 70, 71, 72, 73, 74, 75, 76, 77, 78, 79, 80, 81, 82, 83, 84, 85, 86, 87, 88, 89, 90, 91, 92, 93, 94, 95, 96, 97, 98, 99, 100, 101, 102, 103, 104, 105, 106, 107, 108, 109, 110, 111, 112, 113, 114, 115, 116, 117, 118, 119, 120, 121, 122, 123, 124, 125, 126, 127, 128, 129, 130, 131, 132, 133, 134, 135, 136, 137, 138, 139, 140, 141, 142, 143, 144, 145, 146, 147, 148, 149, 150, 151, 152, 153, 154, 155],
      "WindowCenter": [4802.0, 4804.0, 4808.0, 4802.0, 4806.0, 4804.0, 4800.0, 4828.0, 4808.0, 4804.0, 4806.0, 4808.0, 4802.0, 4804.0, 4806.0, 4804.0, 4806.0, 4802.0, 4806.0, 4802.0, 4804.0, 4804.0, 4802.0, 4806.0, 4806.0, 4806.0, 4828.0, 4804.0, 4800.0, 4806.0, 4808.0, 4806.0, 4826.0, 4806.0, 4828.0, 4804.0, 4830.0, 4804.0, 4806.0, 4804.0, 4804.0, 4806.0, 4806.0, 4806.0, 4804.0, 4804.0, 4830.0, 4804.0, 4830.0, 4802.0, 4804.0, 4808.0, 4808.0, 4806.0, 4806.0, 4808.0, 4806.0, 4832.0, 4830.0, 4806.0, 4808.0, 4806.0, 4804.0, 4808.0, 4804.0, 4806.0, 4804.0, 4804.0, 4828.0, 4806.0, 4808.0, 4834.0, 4830.0, 4804.0, 4806.0, 4806.0, 4808.0, 4806.0, 4804.0, 4826.0, 4830.0, 4808.0, 4808.0, 4810.0, 4806.0, 4828.0, 4806.0, 4830.0, 4802.0, 4806.0, 4804.0, 4830.0, 4806.0, 4830.0, 4802.0, 4828.0, 4828.0, 4828.0, 4830.0, 4806.0, 4808.0, 4806.0, 4828.0, 4828.0, 4830.0, 4830.0, 4828.0, 4808.0, 4830.0, 4804.0, 4832.0, 4832.0, 4808.0, 4828.0, 4806.0, 4806.0, 4828.0, 4830.0, 4832.0, 4832.0, 4832.0, 4806.0, 4828.0, 4804.0, 4808.0, 4830.0, 4830.0, 4830.0, 4832.0, 4830.0, 4802.0, 4806.0, 4808.0, 4830.0, 4806.0, 4828.0, 4832.0, 4830.0, 4832.0, 4832.0, 4830.0, 4830.0, 4810.0, 4808.0, 4808.0, 4830.0, 4830.0, 4830.0, 4808.0, 4832.0, 4828.0, 4832.0, 4804.0, 4808.0, 4830.0],
      "WindowWidth": [18554.0, 18558.0, 18564.0, 18554.0, 18560.0, 18556.0, 18552.0, 18588.0, 18560.0, 18552.0, 18562.0, 18558.0, 18552.0, 18558.0, 18554.0, 18552.0, 18552.0, 18554.0, 18556.0, 18556.0, 18556.0, 18554.0, 18552.0, 18550.0, 18556.0, 18552.0, 18586.0, 18554.0, 18548.0, 18552.0, 18556.0, 18550.0, 18586.0, 18556.0, 18588.0, 18550.0, 18590.0, 18560.0, 18558.0, 18554.0, 18552.0, 18556.0, 18556.0, 18554.0, 18552.0, 18556.0, 18584.0, 18554.0, 18584.0, 18558.0, 18548.0, 18552.0, 18554.0, 18554.0, 18562.0, 18552.0, 18554.0, 18584.0, 18584.0, 18554.0, 18558.0, 18550.0, 18552.0, 18556.0, 18554.0, 18552.0, 18552.0, 18552.0, 18588.0, 18554.0, 18558.0, 18586.0, 18584.0, 18550.0, 18552.0, 18554.0, 18556.0, 18550.0, 18552.0, 18580.0, 18588.0, 18552.0, 18556.0, 18552.0, 18552.0, 18584.0, 18556.0, 18586.0, 18550.0, 18558.0, 18552.0, 18584.0, 18554.0, 18588.0, 18550.0, 18584.0, 18582.0, 18580.0, 18582.0, 18556.0, 18552.0, 18556.0, 18584.0, 18586.0, 18582.0, 18586.0, 18582.0, 18554.0, 18588.0, 18558.0, 18586.0, 18588.0, 18552.0, 18584.0, 18554.0, 18556.0, 18576.0, 18586.0, 18584.0, 18584.0, 18586.0, 18558.0, 18582.0, 18552.0, 18554.0, 18584.0, 18582.0, 18580.0, 18580.0, 18580.0, 18552.0, 18552.0, 18556.0, 18578.0, 18554.0, 18586.0, 18580.0, 18580.0, 18590.0, 18588.0, 18576.0, 18588.0, 18554.0, 18556.0, 18552.0, 18584.0, 18582.0, 18584.0, 18550.0, 18584.0, 18584.0, 18586.0, 18552.0, 18558.0, 18578.0]
    },
    "slices": {}
  }
}