{
  "AcquisitionMatrixPE": 104,
  "AcquisitionNumber": 1,
  "AcquisitionTime": "14:07:42.830000",
  "BandwidthPerPixelPhaseEncode": 17.17,
  "BaseResolution": 104,
  "BodyPartExamined": "BRAIN",
  "CoilCombinationMethod": "Sum of Squares",
  "ConsistencyInfo": "N4_VE11C_LATEST_20160120",
  "ConversionSoftware": "dcm2niix",
  "ConversionSoftwareVersion": "v1.0.20211006",
  "DerivedVendorReportedEchoSpacing": 0.000560011,
  "DeviceSerialNumber": "167006",
  "DwellTime": 2.1e-06,
  "EchoTime": 0.037,
  "EchoTrainLength": 104,
  "EffectiveEchoSpacing": 0.000560011,
  "FlipAngle": 52,
  "HeudiconvVersion": "0.10.0",
  "ImageComments": "Unaliased MB4/PE3/LB",
  "ImageOrientationPatientDICOM": [0.997587, 0.0180176, 0.0670547, -0.00017416, 0.966391, -0.257078],
  "ImageOrientationText": "Tra>Cor(-14.9)>Sag(4.0)",
  "ImageType": [
    "ORIGINAL",
    "PRIMARY",
    "M",
    "MB",
    "ND",
    "MOSAIC"
],
  "ImagingFrequency": 123.259,
  "InPlanePhaseEncodingDirectionDICOM": "COL",
  "InstitutionAddress": "Chemin Queen-Mary 4565,Montreal,District,CA,H3W 1W5",
  "InstitutionName": "IUGM",
  "InstitutionalDepartmentName": "Department",
  "MRAcquisitionType": "2D",
  "MagneticFieldStrength": 3,
  "Manufacturer": "Siemens",
  "ManufacturersModelName": "Prisma_fit",
  "MatrixCoilMode": "SENSE",
  "Modality": "MR",
  "MultibandAccelerationFactor": 4,
  "PartialFourier": 1,
  "PatientPosition": "HFS",
  "PercentPhaseFOV": 100,
  "PercentSampling": 100,
  "PhaseEncodingDirection": "j",
  "PhaseEncodingSteps": 104,
  "PhaseResolution": 1,
  "PixelBandwidth": 2290,
  "ProcedureStepDescription": "localizers^fLoc",
  "ProtocolName": "task_fLoc_run-2",
  "PulseSequenceDetails": "%CustomerSeq%\\cmrr_mbep2d_bold",
  "ReceiveCoilActiveElements": "HC1-7;NC1,2",
  "ReceiveCoilName": "HeadNeck_64",
  "ReconMatrixPE": 104,
  "RepetitionTime": 1.49,
  "SAR": 0.0504053,
  "ScanOptions": "FS",
  "ScanningSequence": "EP",
  "SequenceName": "epfid2d1_104",
  "SequenceVariant": "SK\\SS",
  "SeriesDescription": "task_fLoc_run-2",
  "SeriesNumber": 13,
  "ShimSetting": [656, -7210, -8792, 689, 99, 29, 42, 0],
  "SliceThickness": 2,
  "SliceTiming": [0, 0.7825, 0.0975, 0.88, 0.195, 0.98, 0.2925, 1.0775, 0.39, 1.175, 0.49, 1.2725, 0.5875, 1.37, 0.685, 0, 0.7825, 0.0975, 0.88, 0.195, 0.98, 0.2925, 1.0775, 0.39, 1.175, 0.49, 1.2725, 0.5875, 1.37, 0.685, 0, 0.7825, 0.0975, 0.88, 0.195, 0.98, 0.2925, 1.0775, 0.39, 1.175, 0.49, 1.2725, 0.5875, 1.37, 0.685, 0, 0.7825, 0.0975, 0.88, 0.195, 0.98, 0.2925, 1.0775, 0.39, 1.175, 0.49, 1.2725, 0.5875, 1.37, 0.685],
  "SoftwareVersions": "syngo MR E11",
  "SpacingBetweenSlices": 2,
  "StationName": "MRC35049",
  "TaskName": "fLoc",
  "TotalReadoutTime": 0.0576811,
  "TxRefAmp": 240.07,
  "WipMemBlock": "9df107fa-06c9-49df-ae1a-ee6405124ee0||Sequence: R016 ve11c/master r/e634e98; Dec 19 2017 11:00:25 by eja",
  "dcmmeta_affine": [
    [-1.9951732158660889, -0.0003483192704152316, 0.13886594772338867, 105.77143859863281],
    [-0.03603522107005119, 1.9327811002731323, -0.5128923654556274, -72.58175659179688],
    [0.13410942256450653, 0.5141565799713135, 1.928122878074646, -66.28749084472656],
    [0.0, 0.0, 0.0, 1.0]
],
  "dcmmeta_reorient_transform": [
    [0.0, -1.0, 0.0, 103.0],
    [1.0, 0.0, 0.0, 0.0],
    [0.0, 0.0, 1.0, 0.0],
    [0.0, 0.0, 0.0, 1.0]
],
  "dcmmeta_shape": [104, 104, 60, 155],
  "dcmmeta_slice_dim": 2,
  "dcmmeta_version": 0.6,
  "global": {
    "const": {
      "AcquisitionMatrix": [104, 0, 0, 104],
      "AngioFlag": "N",
      "BitsAllocated": 16,
      "BitsStored": 16,
      "BodyPartExamined": "BRAIN",
      "Columns": 832,
      "EchoNumbers": 1,
      "EchoTime": 37.0,
      "EchoTrainLength": 104,
      "FlipAngle": 52.0,
      "HighBit": 15,
      "ImageOrientationPatient": [0.99758660351782, 0.0180176106516, 0.06705471041012, -0.0001741596387, 0.96639056670104, -0.2570782804121],
      "ImagePositionPatient": [-831.85181844377, -843.14385645657, 125.0077904785],
      "ImageType": [
        "ORIGINAL",
        "PRIMARY",
        "M",
        "MB",
        "ND",
        "MOSAIC"
],
      "ImagedNucleus": "1H",
      "ImagingFrequency": 123.258927,
      "InPlanePhaseEncodingDirection": "COL",
      "MRAcquisitionType": "2D",
      "MagneticFieldStrength": 3.0,
      "Manufacturer": "SIEMENS",
      "ManufacturerModelName": "Prisma_fit",
      "Modality": "MR",
      "NumberOfAverages": 1.0,
      "NumberOfPhaseEncodingSteps": 104,
      "PercentPhaseFieldOfView": 100.0,
      "PercentSampling": 100.0,
      "PerformedProcedureStepStartTime": "135510.345000",
      "PhotometricInterpretation": "MONOCHROME2",
      "PixelBandwidth": 2290.0,
      "PixelRepresentation": 0,
      "PixelSpacing": [2.0, 2.0],
      "ProtocolName": "task_fLoc_run-2",
      "RepetitionTime": 1490.0,
      "Rows": 832,
      "SAR": 0.05040535091094,
      "SamplesPerPixel": 1,
      "ScanOptions": "FS",
      "ScanningSequence": "EP",
      "SequenceName": "epfid2d1_104",
      "SequenceVariant": [
        "SK",
        "SS"
],
      "SeriesDescription": "task_fLoc_run-2",
      "SeriesNumber": 13,
      "SeriesTime": "140849.606000",
      "SliceLocation": -37.947877619407,
      "SliceThickness": 2.0,
      "SmallestImagePixelValue": 0,
      "SoftwareVersions": "syngo MR E11",
      "SpacingBetweenSlices": 1.999999988129,
      "SpecificCharacterSet": "ISO_IR 100",
      "StudyID": "1",
      "StudyTime": "135510.263000",
      "TransmitCoilName": "Body",
      "VariableFlipAngleFlag": "N",
      "WindowCenterWidthExplanation": "Algo1",
      "dBdt": 0.0},
    "slices": {}
  },
  "time": {
    "samples": {
      "AcquisitionNumber": [1, 2, 3, 4, 5, 6, 7, 8, 9, 10, 11, 12, 13, 14, 15, 16, 17, 18, 19, 20, 21, 22, 23, 24, 25, 26, 27, 28, 29, 30, 31, 32, 33, 34, 35, 36, 37, 38, 39, 40, 41, 42, 43, 44, 45, 46, 47, 48, 49, 50, 51, 52, 53, 54, 55, 56, 57, 58, 59, 60, 61, 62, 63, 64, 65, 66, 67, 68, 69, 70, 71, 72, 73, 74, 75, 76, 77, 78, 79, 80, 81, 82, 83, 84, 85, 86, 87, 88, 89, 90, 91, 92, 93, 94, 95, 96, 97, 98, 99, 100, 101, 102, 103, 104, 105, 106, 107, 108, 109, 110, 111, 112, 113, 114, 115, 116, 117, 118, 119, 120, 121, 122, 123, 124, 125, 126, 127, 128, 129, 130, 131, 132, 133, 134, 135, 136, 137, 138, 139, 140, 141, 142, 143, 144, 145, 146, 147, 148, 149, 150, 151, 152, 153, 154, 155],
      "AcquisitionTime": ["140742.830000", "140744.320000", "140745.810000", "140747.300000", "140748.790000", "140750.280000", "140751.770000", "140753.260000", "140754.750000", "140756.240000", "140757.730000", "140759.220000", "140800.710000", "140802.200000", "140803.690000", "140805.180000", "140806.670000", "140808.160000", "140809.650000", "140811.140000", "140812.630000", "140814.120000", "140815.610000", "140817.100000", "140818.590000", "140820.080000", "140821.570000", "140823.060000", "140824.550000", "140826.040000", "140827.530000", "140829.020000", "140830.510000", "140832.000000", "140833.490000", "140834.980000", "140836.470000", "140837.960000", "140839.450000", "140840.940000", "140842.430000", "140843.920000", "140845.410000", "140846.900000", "140848.390000", "140849.880000", "140851.370000", "140852.860000", "140854.350000", "140855.840000", "140857.330000", "140858.820000", "140900.310000", "140901.800000", "140903.290000", "140904.780000", "140906.270000", "140907.760000", "140909.250000", "140910.740000", "140912.230000", "140913.720000", "140915.210000", "140916.700000", "140918.190000", "140919.680000", "140921.170000", "140922.660000", "140924.150000", "140925.640000", "140927.130000", "140928.620000", "140930.110000", "140931.600000", "140933.090000", "140934.580000", "140936.070000", "140937.560000", "140939.050000", "140940.540000", "140942.030000", "140943.520000", "140945.010000", "140946.500000", "140947.990000", "140949.480000", "140950.970000", "140952.460000", "140953.950000", "140955.440000", "140956.930000", "140958.420000", "140959.910000", "141001.400000", "141002.890000", "141004.380000", "141005.870000", "141007.360000", "141008.850000", "141010.340000", "141011.830000", "141013.320000", "141014.810000", "141016.300000", "141017.790000", "141019.280000", "141020.770000", "141022.260000", "141023.750000", "141025.240000", "141026.730000", "141028.220000", "141029.710000", "141031.200000", "141032.690000", "141034.180000", "141035.670000", "141037.160000", "141038.650000", "141040.140000", "141041.630000", "141043.120000", "141044.610000", "141046.100000", "141047.590000", "141049.080000", "141050.570000", "141052.060000", "141053.550000", "141055.040000", "141056.530000", "141058.020000", "141059.510000", "141101.000000", "141102.490000", "141103.980000", "141105.470000", "141106.960000", "141108.450000", "141109.940000", "141111.430000", "141112.920000", "141114.410000", "141115.900000", "141117.390000", "141118.880000", "141120.370000", "141121.860000", "141123.350000", "141124.840000", "141126.330000", "141127.820000", "141129.310000", "141130.800000", "141132.290000"],
      "ContentTime": ["140849.609000", "140849.613000", "140849.616000", "140849.619000", "140849.623000", "140849.626000", "140849.629000", "140849.633000", "140849.640000", "140849.643000", "140849.646000", "140849.649000", "140909.562000", "140909.566000", "140909.575000", "140909.579000", "140909.582000", "140909.585000", "140909.588000", "140909.592000", "140909.595000", "140909.598000", "140909.602000", "140909.605000", "140909.608000", "140909.612000", "140909.615000", "140909.618000", "140909.622000", "140909.625000", "140909.628000", "140909.631000", "140929.562000", "140929.566000", "140929.569000", "140929.572000", "140929.576000", "140929.579000", "140929.582000", "140929.586000", "140929.589000", "140929.592000", "140929.596000", "140929.599000", "140929.602000", "140929.606000", "140929.609000", "140929.612000", "140929.615000", "140929.619000", "140929.622000", "140929.625000", "140949.562000", "140949.566000", "140949.569000", "140949.572000", "140949.576000", "140949.579000", "140949.583000", "140949.586000", "140949.589000", "140949.593000", "140949.596000", "140949.599000", "140949.603000", "140949.606000", "140949.609000", "140949.613000", "140949.616000", "140949.619000", "140949.622000", "140949.626000", "141009.561000", "141009.565000", "141009.568000", "141009.571000", "141009.575000", "141009.578000", "141009.582000", "141009.585000", "141009.588000", "141009.592000", "141009.595000", "141009.598000", "141009.602000", "141009.605000", "141009.608000", "141009.612000", "141009.615000", "141009.618000", "141009.622000", "141009.625000", "141049.562000", "141049.566000", "141049.569000", "141049.573000", "141049.576000", "141049.579000", "141049.583000", "141049.586000", "141049.589000", "141049.593000", "141049.596000", "141049.599000", "141049.603000", "141049.606000", "141049.609000", "141049.613000", "141049.616000", "141049.619000", "141049.623000", "141049.626000", "141049.629000", "141049.633000", "141049.636000", "141049.639000", "141049.643000", "141049.646000", "141049.649000", "141049.653000", "141049.656000", "141049.660000", "141049.663000", "141049.666000", "141049.670000", "141129.562000", "141129.566000", "141129.569000", "141129.572000", "141129.576000", "141129.579000", "141129.583000", "141129.586000", "141129.589000", "141129.593000", "141129.596000", "141129.599000", "141129.603000", "141129.606000", "141129.609000", "141129.613000", "141129.616000", "141129.619000", "141129.623000", "141129.626000", "141129.629000", "141129.633000", "141129.636000", "141129.639000", "141129.642000", "141129.646000", "141129.649000", "141134.027000", "141134.031000", "141134.034000"],
      "InstanceCreationTime": ["140849.609000", "140849.613000", "140849.616000", "140849.619000", "140849.623000", "140849.626000", "140849.629000", "140849.633000", "140849.640000", "140849.643000", "140849.646000", "140849.649000", "140909.562000", "140909.566000", "140909.575000", "140909.579000", "140909.582000", "140909.585000", "140909.588000", "140909.592000", "140909.595000", "140909.598000", "140909.602000", "140909.605000", "140909.608000", "140909.612000", "140909.615000", "140909.618000", "140909.622000", "140909.625000", "140909.628000", "140909.631000", "140929.562000", "140929.566000", "140929.569000", "140929.572000", "140929.576000", "140929.579000", "140929.582000", "140929.586000", "140929.589000", "140929.592000", "140929.596000", "140929.599000", "140929.602000", "140929.606000", "140929.609000", "140929.612000", "140929.615000", "140929.619000", "140929.622000", "140929.625000", "140949.562000", "140949.566000", "140949.569000", "140949.572000", "140949.576000", "140949.579000", "140949.583000", "140949.586000", "140949.589000", "140949.593000", "140949.596000", "140949.599000", "140949.603000", "140949.606000", "140949.609000", "140949.613000", "140949.616000", "140949.619000", "140949.622000", "140949.626000", "141009.561000", "141009.565000", "141009.568000", "141009.571000", "141009.575000", "141009.578000", "141009.582000", "141009.585000", "141009.588000", "141009.592000", "141009.595000", "141009.598000", "141009.602000", "141009.605000", "141009.608000", "141009.612000", "141009.615000", "141009.618000", "141009.622000", "141009.625000", "141049.562000", "141049.566000", "141049.569000", "141049.573000", "141049.576000", "141049.579000", "141049.583000", "141049.586000", "141049.589000", "141049.593000", "141049.596000", "141049.599000", "141049.603000", "141049.606000", "141049.609000", "141049.613000", "141049.616000", "141049.619000", "141049.623000", "141049.626000", "141049.629000", "141049.633000", "141049.636000", "141049.639000", "141049.643000", "141049.646000", "141049.649000", "141049.653000", "141049.656000", "141049.660000", "141049.663000", "141049.666000", "141049.670000", "141129.562000", "141129.566000", "141129.569000", "141129.572000", "141129.576000", "141129.579000", "141129.583000", "141129.586000", "141129.589000", "141129.593000", "141129.596000", "141129.599000", "141129.603000", "141129.606000", "141129.609000", "141129.613000", "141129.616000", "141129.619000", "141129.623000", "141129.626000", "141129.629000", "141129.633000", "141129.636000", "141129.639000", "141129.642000", "141129.646000", "141129.649000", "141134.027000", "141134.031000", "141134.034000"],
      "InstanceNumber": [1, 2, 3, 4, 5, 6, 7, 8, 9, 10, 11, 12, 13, 14, 15, 16, 17, 18, 19, 20, 21, 22, 23, 24, 25, 26, 27, 28, 29, 30, 31, 32, 33, 34, 35, 36, 37, 38, 39, 40, 41, 42, 43, 44, 45, 46, 47, 48, 49, 50, 51, 52, 53, 54, 55, 56, 57, 58, 59, 60, 61, 62, 63, 64, 65, 66, 67, 68, 69, 70, 71, 72, 73, 74, 75, 76, 77, 78, 79, 80, 81, 82, 83, 84, 85, 86, 87, 88, 89, 90, 91, 92, 93, 94, 95, 96, 97, 98, 99, 100, 101, 102, 103, 104, 105, 106, 107, 108, 109, 110, 111, 112, 113, 114, 115, 116, 117, 118, 119, 120, 121, 122, 123, 124, 125, 126, 127, 128, 129, 130, 131, 132, 133, 134, 135, 136, 137, 138, 139, 140, 141, 142, 143, 144, 145, 146, 147, 148, 149, 150, 151, 152, 153, 154, 155],
      "LargestImagePixelValue": [40487, 39180, 38233, 37754, 37844, 38024, 37889, 37599, 37626, 37655, 37903, 37715, 37561, 37239, 37555, 37593, 37593, 37706, 37921, 37351, 37586, 37538, 37597, 38021, 37404, 37494, 37454, 37662, 37590, 37313, 37532, 37822, 37647, 37306, 37384, 37188, 37309, 37548, 37529, 37730, 37227, 37527, 37047, 37799, 37075, 37695, 37570, 37598, 37525, 37516, 37187, 37152, 37371, 37622, 38009, 37866, 37303, 37539, 37481, 37501, 36906, 37106, 37823, 37630, 37703, 37641, 37181, 36992, 37382, 37108, 37278, 37759, 37632, 37489, 37446, 37456, 36914, 37198, 37311, 38122, 37708, 37807, 37338, 37169, 37732, 37601, 37522, 37870, 37639, 37595, 37620, 37142, 37781, 37359, 37504, 37222, 37438, 37604, 37858, 37936, 37107, 37280, 37407, 37648, 37649, 37452, 37397, 37483, 37760, 37788, 37791, 37229, 37816, 37421, 37794, 37046, 37508, 37622, 37484, 37362, 37777, 37328, 37431, 37718, 37285, 37894, 37293, 37414, 37611, 37055, 37272, 37332, 37184, 36993, 37065, 37021, 36961, 37515, 36678, 37573, 36863, 37033, 36760, 36862, 36661, 37161, 37031, 36957, 36874, 37111, 36874, 37032, 37338, 36905, 36856],
      "WindowCenter": [10106.0, 10070.0, 10054.0, 10053.0, 10045.0, 10041.0, 10033.0, 10026.0, 10034.0, 10047.0, 10051.0, 10053.0, 10070.0, 10068.0, 10072.0, 10063.0, 10053.0, 10045.0, 10051.0, 10045.0, 10046.0, 10037.0, 10036.0, 10031.0, 10025.0, 10025.0, 10034.0, 10041.0, 10036.0, 10026.0, 10018.0, 10023.0, 10040.0, 10049.0, 10052.0, 10039.0, 10026.0, 10016.0, 10016.0, 10039.0, 10055.0, 10063.0, 10048.0, 10037.0, 10026.0, 10023.0, 10022.0, 10031.0, 10033.0, 10034.0, 10035.0, 10036.0, 10026.0, 10017.0, 10018.0, 10020.0, 10031.0, 10042.0, 10042.0, 10037.0, 10029.0, 10029.0, 10025.0, 10031.0, 10034.0, 10057.0, 10055.0, 10055.0, 10051.0, 10038.0, 10037.0, 10049.0, 10051.0, 10044.0, 10050.0, 10046.0, 10031.0, 10020.0, 10008.0, 10014.0, 10030.0, 10040.0, 10036.0, 10029.0, 10025.0, 10029.0, 10041.0, 10050.0, 10044.0, 10028.0, 10024.0, 10024.0, 10031.0, 10027.0, 10034.0, 10033.0, 10027.0, 10024.0, 10024.0, 10038.0, 10036.0, 10027.0, 10018.0, 10031.0, 10047.0, 10043.0, 10036.0, 10035.0, 10040.0, 10026.0, 10024.0, 10018.0, 10025.0, 10026.0, 10039.0, 10028.0, 10026.0, 10023.0, 10024.0, 10041.0, 10051.0, 10039.0, 10021.0, 10024.0, 10025.0, 10031.0, 10025.0, 10026.0, 10038.0, 10028.0, 10026.0, 10019.0, 10018.0, 10025.0, 10028.0, 10027.0, 10012.0, 10002.0, 9986.0, 10005.0, 10012.0, 10029.0, 10029.0, 10020.0, 10003.0, 10010.0, 10025.0, 10028.0, 10014.0, 10011.0, 10000.0, 10007.0, 10021.0, 10027.0, 10021.0],
      "WindowWidth": [21491.0, 21391.0, 21348.0, 21338.0, 21315.0, 21302.0, 21285.0, 21268.0, 21288.0, 21313.0, 21326.0, 21332.0, 21371.0, 21373.0, 21376.0, 21356.0, 21331.0, 21313.0, 21325.0, 21313.0, 21315.0, 21294.0, 21291.0, 21277.0, 21266.0, 21267.0, 21285.0, 21299.0, 21288.0, 21266.0, 21249.0, 21259.0, 21299.0, 21320.0, 21326.0, 21296.0, 21266.0, 21245.0, 21247.0, 21296.0, 21338.0, 21355.0, 21321.0, 21293.0, 21267.0, 21259.0, 21256.0, 21278.0, 21282.0, 21282.0, 21287.0, 21289.0, 21264.0, 21245.0, 21243.0, 21250.0, 21278.0, 21304.0, 21305.0, 21297.0, 21279.0, 21276.0, 21264.0, 21276.0, 21288.0, 21335.0, 21337.0, 21336.0, 21321.0, 21297.0, 21293.0, 21315.0, 21321.0, 21307.0, 21318.0, 21311.0, 21276.0, 21248.0, 21222.0, 21234.0, 21270.0, 21295.0, 21289.0, 21273.0, 21261.0, 21267.0, 21297.0, 21320.0, 21307.0, 21271.0, 21257.0, 21260.0, 21275.0, 21266.0, 21282.0, 21280.0, 21269.0, 21259.0, 21261.0, 21290.0, 21289.0, 21267.0, 21247.0, 21274.0, 21308.0, 21303.0, 21286.0, 21285.0, 21291.0, 21264.0, 21256.0, 21245.0, 21260.0, 21262.0, 21289.0, 21271.0, 21263.0, 21255.0, 21259.0, 21296.0, 21319.0, 21295.0, 21253.0, 21256.0, 21260.0, 21273.0, 21259.0, 21264.0, 21286.0, 21269.0, 21263.0, 21248.0, 21245.0, 21259.0, 21267.0, 21265.0, 21232.0, 21205.0, 21172.0, 21212.0, 21234.0, 21270.0, 21270.0, 21247.0, 21210.0, 21223.0, 21254.0, 21264.0, 21237.0, 21226.0, 21201.0, 21215.0, 21246.0, 21264.0, 21254.0]
    },
    "slices": {}
  }
}