{
  "AcquisitionMatrixPE": 104,
  "AcquisitionNumber": 1,
  "AcquisitionTime": "14:07:42.830000",
  "BandwidthPerPixelPhaseEncode": 17.17,
  "BaseResolution": 104,
  "BodyPartExamined": "BRAIN",
  "CoilCombinationMethod": "Sum of Squares",
  "ConsistencyInfo": "N4_VE11C_LATEST_20160120",
  "ConversionSoftware": "dcm2niix",
  "ConversionSoftwareVersion": "v1.0.20211006",
  "DerivedVendorReportedEchoSpacing": 0.000560011,
  "DeviceSerialNumber": "167006",
  "DwellTime": 2.1e-06,
  "EchoTime": 0.037,
  "EchoTime1": 0.037,
  "EchoTime2": 0.001,
  "EchoTrainLength": 104,
  "EffectiveEchoSpacing": 0.000560011,
  "FlipAngle": 52,
  "HeudiconvVersion": "0.10.0",
  "ImageComments": "Unaliased MB4/PE3/LB",
  "ImageOrientationPatientDICOM": [0.997587, 0.0180176, 0.0670547, -0.00017416, 0.966391, -0.257078],
  "ImageOrientationText": "Tra>Cor(-14.9)>Sag(4.0)",
  "ImageType": [
    "ORIGINAL",
    "PRIMARY",
    "P",
    "MB",
    "ND",
    "MOSAIC",
    "PHASE"
],
  "ImagingFrequency": 123.259,
  "InPlanePhaseEncodingDirectionDICOM": "COL",
  "InstitutionAddress": "Chemin Queen-Mary 4565,Montreal,District,CA,H3W 1W5",
  "InstitutionName": "IUGM",
  "InstitutionalDepartmentName": "Department",
  "MRAcquisitionType": "2D",
  "MagneticFieldStrength": 3,
  "Manufacturer": "Siemens",
  "ManufacturersModelName": "Prisma_fit",
  "MatrixCoilMode": "SENSE",
  "Modality": "MR",
  "MultibandAccelerationFactor": 4,
  "PartialFourier": 1,
  "PatientPosition": "HFS",
  "PercentPhaseFOV": 100,
  "PercentSampling": 100,
  "PhaseEncodingDirection": "j",
  "PhaseEncodingSteps": 104,
  "PhaseResolution": 1,
  "PixelBandwidth": 2290,
  "ProcedureStepDescription": "localizers^fLoc",
  "ProtocolName": "task_fLoc_run-2",
  "PulseSequenceDetails": "%CustomerSeq%\\cmrr_mbep2d_bold",
  "ReceiveCoilActiveElements": "HC1-7;NC1,2",
  "ReceiveCoilName": "HeadNeck_64",
  "ReconMatrixPE": 104,
  "RepetitionTime": 1.49,
  "SAR": 0.0504053,
  "ScanOptions": "FS",
  "ScanningSequence": "EP",
  "SequenceName": "epfid2d1_104",
  "SequenceVariant": "SK\\SS",
  "SeriesDescription": "task_fLoc_run-2",
  "SeriesNumber": 14,
  "ShimSetting": [656, -7210, -8792, 689, 99, 29, 42, 0],
  "SliceThickness": 2,
  "SliceTiming": [0, 0.7825, 0.0975, 0.88, 0.195, 0.98, 0.2925, 1.0775, 0.39, 1.175, 0.49, 1.2725, 0.5875, 1.37, 0.685, 0, 0.7825, 0.0975, 0.88, 0.195, 0.98, 0.2925, 1.0775, 0.39, 1.175, 0.49, 1.2725, 0.5875, 1.37, 0.685, 0, 0.7825, 0.0975, 0.88, 0.195, 0.98, 0.2925, 1.0775, 0.39, 1.175, 0.49, 1.2725, 0.5875, 1.37, 0.685, 0, 0.7825, 0.0975, 0.88, 0.195, 0.98, 0.2925, 1.0775, 0.39, 1.175, 0.49, 1.2725, 0.5875, 1.37, 0.685],
  "SoftwareVersions": "syngo MR E11",
  "SpacingBetweenSlices": 2,
  "StationName": "MRC35049",
  "TaskName": "fLoc",
  "TotalReadoutTime": 0.0576811,
  "TxRefAmp": 240.07,
  "WipMemBlock": "9df107fa-06c9-49df-ae1a-ee6405124ee0||Sequence: R016 ve11c/master r/e634e98; Dec 19 2017 11:00:25 by eja",
  "dcmmeta_affine": [
    [-1.9951732158660889, -0.0003483192704152316, 0.13886594772338867, 105.77143859863281],
    [-0.03603522107005119, 1.9327811002731323, -0.5128923654556274, -72.58175659179688],
    [0.13410942256450653, 0.5141565799713135, 1.928122878074646, -66.28749084472656],
    [0.0, 0.0, 0.0, 1.0]
],
  "dcmmeta_reorient_transform": [
    [0.0, -1.0, 0.0, 103.0],
    [1.0, 0.0, 0.0, 0.0],
    [0.0, 0.0, 1.0, 0.0],
    [0.0, 0.0, 0.0, 1.0]
],
  "dcmmeta_shape": [104, 104, 60, 155],
  "dcmmeta_slice_dim": 2,
  "dcmmeta_version": 0.6,
  "global": {
    "const": {
      "AcquisitionMatrix": [104, 0, 0, 104],
      "AngioFlag": "N",
      "BitsAllocated": 16,
      "BitsStored": 16,
      "BodyPartExamined": "BRAIN",
      "Columns": 832,
      "EchoNumbers": 1,
      "EchoTime": 37.0,
      "EchoTrainLength": 104,
      "FlipAngle": 52.0,
      "HighBit": 15,
      "ImageOrientationPatient": [0.99758660351782, 0.0180176106516, 0.06705471041012, -0.0001741596387, 0.96639056670104, -0.2570782804121],
      "ImagePositionPatient": [-831.85181844377, -843.14385645657, 125.0077904785],
      "ImageType": [
        "ORIGINAL",
        "PRIMARY",
        "P",
        "MB",
        "ND",
        "MOSAIC"
],
      "ImagedNucleus": "1H",
      "ImagingFrequency": 123.258927,
      "InPlanePhaseEncodingDirection": "COL",
      "LargestImagePixelValue": 4095,
      "MRAcquisitionType": "2D",
      "MagneticFieldStrength": 3.0,
      "Manufacturer": "SIEMENS",
      "ManufacturerModelName": "Prisma_fit",
      "Modality": "MR",
      "NumberOfAverages": 1.0,
      "NumberOfPhaseEncodingSteps": 104,
      "PercentPhaseFieldOfView": 100.0,
      "PercentSampling": 100.0,
      "PerformedProcedureStepStartTime": "135510.345000",
      "PhotometricInterpretation": "MONOCHROME2",
      "PixelBandwidth": 2290.0,
      "PixelRepresentation": 0,
      "PixelSpacing": [2.0, 2.0],
      "ProtocolName": "task_fLoc_run-2",
      "RepetitionTime": 1490.0,
      "RescaleIntercept": -4096.0,
      "RescaleSlope": 2.0,
      "RescaleType": "US",
      "Rows": 832,
      "SAR": 0.05040535091094,
      "SamplesPerPixel": 1,
      "ScanOptions": "FS",
      "ScanningSequence": "EP",
      "SequenceName": "epfid2d1_104",
      "SequenceVariant": [
        "SK",
        "SS"
],
      "SeriesDescription": "task_fLoc_run-2",
      "SeriesNumber": 14,
      "SeriesTime": "140849.681000",
      "SliceLocation": -37.947877619407,
      "SliceThickness": 2.0,
      "SmallestImagePixelValue": 0,
      "SoftwareVersions": "syngo MR E11",
      "SpacingBetweenSlices": 1.999999988129,
      "SpecificCharacterSet": "ISO_IR 100",
      "StudyID": "1",
      "StudyTime": "135510.263000",
      "TransmitCoilName": "Body",
      "VariableFlipAngleFlag": "N",
      "WindowCenterWidthExplanation": "Algo1",
      "dBdt": 0.0},
    "slices": {}
  },
  "time": {
    "samples": {
      "AcquisitionNumber": [1, 2, 3, 4, 5, 6, 7, 8, 9, 10, 11, 12, 13, 14, 15, 16, 17, 18, 19, 20, 21, 22, 23, 24, 25, 26, 27, 28, 29, 30, 31, 32, 33, 34, 35, 36, 37, 38, 39, 40, 41, 42, 43, 44, 45, 46, 47, 48, 49, 50, 51, 52, 53, 54, 55, 56, 57, 58, 59, 60, 61, 62, 63, 64, 65, 66, 67, 68, 69, 70, 71, 72, 73, 74, 75, 76, 77, 78, 79, 80, 81, 82, 83, 84, 85, 86, 87, 88, 89, 90, 91, 92, 93, 94, 95, 96, 97, 98, 99, 100, 101, 102, 103, 104, 105, 106, 107, 108, 109, 110, 111, 112, 113, 114, 115, 116, 117, 118, 119, 120, 121, 122, 123, 124, 125, 126, 127, 128, 129, 130, 131, 132, 133, 134, 135, 136, 137, 138, 139, 140, 141, 142, 143, 144, 145, 146, 147, 148, 149, 150, 151, 152, 153, 154, 155],
      "AcquisitionTime": ["140742.830000", "140744.320000", "140745.810000", "140747.300000", "140748.790000", "140750.280000", "140751.770000", "140753.260000", "140754.750000", "140756.240000", "140757.730000", "140759.220000", "140800.710000", "140802.200000", "140803.690000", "140805.180000", "140806.670000", "140808.160000", "140809.650000", "140811.140000", "140812.630000", "140814.120000", "140815.610000", "140817.100000", "140818.590000", "140820.080000", "140821.570000", "140823.060000", "140824.550000", "140826.040000", "140827.530000", "140829.020000", "140830.510000", "140832.000000", "140833.490000", "140834.980000", "140836.470000", "140837.960000", "140839.450000", "140840.940000", "140842.430000", "140843.920000", "140845.410000", "140846.900000", "140848.390000", "140849.880000", "140851.370000", "140852.860000", "140854.350000", "140855.840000", "140857.330000", "140858.820000", "140900.310000", "140901.800000", "140903.290000", "140904.780000", "140906.270000", "140907.760000", "140909.250000", "140910.740000", "140912.230000", "140913.720000", "140915.210000", "140916.700000", "140918.190000", "140919.680000", "140921.170000", "140922.660000", "140924.150000", "140925.640000", "140927.130000", "140928.620000", "140930.110000", "140931.600000", "140933.090000", "140934.580000", "140936.070000", "140937.560000", "140939.050000", "140940.540000", "140942.030000", "140943.520000", "140945.010000", "140946.500000", "140947.990000", "140949.480000", "140950.970000", "140952.460000", "140953.950000", "140955.440000", "140956.930000", "140958.420000", "140959.910000", "141001.400000", "141002.890000", "141004.380000", "141005.870000", "141007.360000", "141008.850000", "141010.340000", "141011.830000", "141013.320000", "141014.810000", "141016.300000", "141017.790000", "141019.280000", "141020.770000", "141022.260000", "141023.750000", "141025.240000", "141026.730000", "141028.220000", "141029.710000", "141031.200000", "141032.690000", "141034.180000", "141035.670000", "141037.160000", "141038.650000", "141040.140000", "141041.630000", "141043.120000", "141044.610000", "141046.100000", "141047.590000", "141049.080000", "141050.570000", "141052.060000", "141053.550000", "141055.040000", "141056.530000", "141058.020000", "141059.510000", "141101.000000", "141102.490000", "141103.980000", "141105.470000", "141106.960000", "141108.450000", "141109.940000", "141111.430000", "141112.920000", "141114.410000", "141115.900000", "141117.390000", "141118.880000", "141120.370000", "141121.860000", "141123.350000", "141124.840000", "141126.330000", "141127.820000", "141129.310000", "141130.800000", "141132.290000"],
      "ContentTime": ["140849.683000", "140849.686000", "140849.688000", "140849.691000", "140849.694000", "140849.696000", "140849.698000", "140849.701000", "140849.703000", "140849.706000", "140849.708000", "140849.711000", "140909.692000", "140909.695000", "140909.697000", "140909.700000", "140909.702000", "140909.705000", "140909.707000", "140909.710000", "140909.714000", "140909.717000", "140909.719000", "140909.721000", "140909.724000", "140909.726000", "140909.729000", "140909.731000", "140909.734000", "140909.736000", "140909.739000", "140909.768000", "140929.668000", "140929.671000", "140929.673000", "140929.676000", "140929.678000", "140929.681000", "140929.683000", "140929.686000", "140929.688000", "140929.691000", "140929.693000", "140929.696000", "140929.698000", "140929.701000", "140929.703000", "140929.706000", "140929.708000", "140929.711000", "140929.713000", "140929.716000", "140949.673000", "140949.675000", "140949.678000", "140949.681000", "140949.683000", "140949.686000", "140949.688000", "140949.691000", "140949.693000", "140949.696000", "140949.698000", "140949.701000", "140949.703000", "140949.706000", "140949.708000", "140949.711000", "140949.713000", "140949.716000", "140949.718000", "140949.721000", "141009.672000", "141009.675000", "141009.678000", "141009.691000", "141009.694000", "141009.696000", "141009.699000", "141009.701000", "141009.704000", "141009.706000", "141009.709000", "141009.711000", "141009.714000", "141009.716000", "141009.719000", "141009.721000", "141009.724000", "141009.726000", "141009.729000", "141009.731000", "141049.726000", "141049.729000", "141049.731000", "141049.734000", "141049.736000", "141049.739000", "141049.742000", "141049.744000", "141049.747000", "141049.749000", "141049.752000", "141049.755000", "141049.757000", "141049.760000", "141049.762000", "141049.765000", "141049.768000", "141049.770000", "141049.773000", "141049.775000", "141049.778000", "141049.780000", "141049.783000", "141049.785000", "141049.788000", "141049.790000", "141049.793000", "141049.796000", "141049.798000", "141049.801000", "141049.803000", "141049.806000", "141049.809000", "141129.710000", "141129.713000", "141129.715000", "141129.718000", "141129.720000", "141129.723000", "141129.726000", "141129.728000", "141129.731000", "141129.733000", "141129.736000", "141129.738000", "141129.741000", "141129.743000", "141129.746000", "141129.748000", "141129.751000", "141129.753000", "141129.756000", "141129.758000", "141129.761000", "141129.763000", "141129.766000", "141129.769000", "141129.771000", "141129.774000", "141129.776000", "141134.064000", "141134.066000", "141134.069000"],
      "InstanceCreationTime": ["140849.683000", "140849.686000", "140849.688000", "140849.691000", "140849.694000", "140849.696000", "140849.698000", "140849.701000", "140849.703000", "140849.706000", "140849.708000", "140849.711000", "140909.692000", "140909.695000", "140909.697000", "140909.700000", "140909.702000", "140909.705000", "140909.707000", "140909.710000", "140909.714000", "140909.717000", "140909.719000", "140909.721000", "140909.724000", "140909.726000", "140909.729000", "140909.731000", "140909.734000", "140909.736000", "140909.739000", "140909.768000", "140929.668000", "140929.671000", "140929.673000", "140929.676000", "140929.678000", "140929.681000", "140929.683000", "140929.686000", "140929.688000", "140929.691000", "140929.693000", "140929.696000", "140929.698000", "140929.701000", "140929.703000", "140929.706000", "140929.708000", "140929.711000", "140929.713000", "140929.716000", "140949.673000", "140949.675000", "140949.678000", "140949.681000", "140949.683000", "140949.686000", "140949.688000", "140949.691000", "140949.693000", "140949.696000", "140949.698000", "140949.701000", "140949.703000", "140949.706000", "140949.708000", "140949.711000", "140949.713000", "140949.716000", "140949.718000", "140949.721000", "141009.672000", "141009.675000", "141009.678000", "141009.691000", "141009.694000", "141009.696000", "141009.699000", "141009.701000", "141009.704000", "141009.706000", "141009.709000", "141009.711000", "141009.714000", "141009.716000", "141009.719000", "141009.721000", "141009.724000", "141009.726000", "141009.729000", "141009.731000", "141049.726000", "141049.729000", "141049.731000", "141049.734000", "141049.736000", "141049.739000", "141049.742000", "141049.744000", "141049.747000", "141049.749000", "141049.752000", "141049.755000", "141049.757000", "141049.760000", "141049.762000", "141049.765000", "141049.768000", "141049.770000", "141049.773000", "141049.775000", "141049.778000", "141049.780000", "141049.783000", "141049.785000", "141049.788000", "141049.790000", "141049.793000", "141049.796000", "141049.798000", "141049.801000", "141049.803000", "141049.806000", "141049.809000", "141129.710000", "141129.713000", "141129.715000", "141129.718000", "141129.720000", "141129.723000", "141129.726000", "141129.728000", "141129.731000", "141129.733000", "141129.736000", "141129.738000", "141129.741000", "141129.743000", "141129.746000", "141129.748000", "141129.751000", "141129.753000", "141129.756000", "141129.758000", "141129.761000", "141129.763000", "141129.766000", "141129.769000", "141129.771000", "141129.774000", "141129.776000", "141134.064000", "141134.066000", "141134.069000"],
      "InstanceNumber": [1, 2, 3, 4, 5, 6, 7, 8, 9, 10, 11, 12, 13, 14, 15, 16, 17, 18, 19, 20, 21, 22, 23, 24, 25, 26, 27, 28, 29, 30, 31, 32, 33, 34, 35, 36, 37, 38, 39, 40, 41, 42, 43, 44, 45, 46, 47, 48, 49, 50, 51, 52, 53, 54, 55, 56, 57, 58, 59, 60, 61, 62, 63, 64, 65, 66, 67, 68, 69, 70, 71, 72, 73, 74, 75, 76, 77, 78, 79, 80, 81, 82, 83, 84, 85, 86, 87, 88, 89, 90, 91, 92, 93, 94, 95, 96, 97, 98, 99, 100, 101, 102, 103, 104, 105, 106, 107, 108, 109, 110, 111, 112, 113, 114, 115, 116, 117, 118, 119, 120, 121, 122, 123, 124, 125, 126, 127, 128, 129, 130, 131, 132, 133, 134, 135, 136, 137, 138, 139, 140, 141, 142, 143, 144, 145, 146, 147, 148, 149, 150, 151, 152, 153, 154, 155],
      "WindowCenter": [4764.0, 4760.0, 4788.0, 4762.0, 4766.0, 4764.0, 4766.0, 4766.0, 4766.0, 4764.0, 4768.0, 4768.0, 4764.0, 4758.0, 4762.0, 4766.0, 4768.0, 4766.0, 4766.0, 4764.0, 4766.0, 4766.0, 4766.0, 4766.0, 4766.0, 4762.0, 4766.0, 4766.0, 4788.0, 4766.0, 4790.0, 4766.0, 4766.0, 4768.0, 4768.0, 4766.0, 4766.0, 4766.0, 4766.0, 4764.0, 4764.0, 4764.0, 4790.0, 4766.0, 4764.0, 4766.0, 4766.0, 4766.0, 4766.0, 4768.0, 4766.0, 4766.0, 4790.0, 4766.0, 4788.0, 4764.0, 4764.0, 4768.0, 4770.0, 4768.0, 4766.0, 4768.0, 4766.0, 4766.0, 4766.0, 4764.0, 4768.0, 4770.0, 4790.0, 4768.0, 4768.0, 4766.0, 4766.0, 4768.0, 4790.0, 4768.0, 4766.0, 4766.0, 4792.0, 4766.0, 4772.0, 4768.0, 4790.0, 4768.0, 4792.0, 4768.0, 4770.0, 4764.0, 4766.0, 4764.0, 4770.0, 4768.0, 4768.0, 4766.0, 4770.0, 4768.0, 4768.0, 4764.0, 4766.0, 4766.0, 4766.0, 4766.0, 4770.0, 4794.0, 4770.0, 4766.0, 4770.0, 4766.0, 4768.0, 4764.0, 4768.0, 4768.0, 4774.0, 4766.0, 4770.0, 4768.0, 4794.0, 4768.0, 4792.0, 4768.0, 4768.0, 4766.0, 4770.0, 4770.0, 4790.0, 4768.0, 4770.0, 4770.0, 4766.0, 4768.0, 4766.0, 4794.0, 4770.0, 4792.0, 4770.0, 4770.0, 4772.0, 4768.0, 4766.0, 4772.0, 4766.0, 4770.0, 4792.0, 4772.0, 4770.0, 4772.0, 4770.0, 4770.0, 4792.0, 4768.0, 4766.0, 4768.0, 4768.0, 4768.0, 4768.0],
      "WindowWidth": [18532.0, 18532.0, 18566.0, 18532.0, 18532.0, 18530.0, 18528.0, 18530.0, 18536.0, 18530.0, 18534.0, 18534.0, 18534.0, 18526.0, 18526.0, 18530.0, 18530.0, 18530.0, 18530.0, 18528.0, 18532.0, 18532.0, 18534.0, 18532.0, 18530.0, 18528.0, 18534.0, 18532.0, 18560.0, 18528.0, 18566.0, 18532.0, 18534.0, 18532.0, 18530.0, 18532.0, 18530.0, 18530.0, 18530.0, 18532.0, 18532.0, 18526.0, 18566.0, 18532.0, 18530.0, 18528.0, 18534.0, 18532.0, 18532.0, 18532.0, 18526.0, 18526.0, 18564.0, 18532.0, 18562.0, 18524.0, 18534.0, 18534.0, 18532.0, 18530.0, 18528.0, 18530.0, 18532.0, 18532.0, 18532.0, 18532.0, 18534.0, 18536.0, 18562.0, 18530.0, 18532.0, 18530.0, 18532.0, 18532.0, 18562.0, 18532.0, 18530.0, 18534.0, 18562.0, 18532.0, 18530.0, 18530.0, 18558.0, 18532.0, 18560.0, 18532.0, 18534.0, 18530.0, 18532.0, 18532.0, 18532.0, 18530.0, 18530.0, 18530.0, 18534.0, 18540.0, 18530.0, 18526.0, 18532.0, 18534.0, 18530.0, 18526.0, 18534.0, 18562.0, 18532.0, 18532.0, 18536.0, 18530.0, 18532.0, 18530.0, 18528.0, 18530.0, 18530.0, 18532.0, 18532.0, 18534.0, 18562.0, 18530.0, 18564.0, 18530.0, 18532.0, 18528.0, 18534.0, 18528.0, 18564.0, 18534.0, 18534.0, 18532.0, 18532.0, 18528.0, 18530.0, 18564.0, 18532.0, 18558.0, 18530.0, 18530.0, 18532.0, 18534.0, 18532.0, 18536.0, 18530.0, 18532.0, 18566.0, 18532.0, 18534.0, 18532.0, 18538.0, 18528.0, 18568.0, 18530.0, 18530.0, 18528.0, 18534.0, 18526.0, 18532.0]
    },
    "slices": {}
  }
}