{
  "AcquisitionMatrixPE": 104,
  "AcquisitionNumber": 1,
  "AcquisitionTime": "13:59:43.227500",
  "BandwidthPerPixelPhaseEncode": 17.17,
  "BaseResolution": 104,
  "BodyPartExamined": "BRAIN",
  "CoilCombinationMethod": "Sum of Squares",
  "ConsistencyInfo": "N4_VE11C_LATEST_20160120",
  "ConversionSoftware": "dcm2niix",
  "ConversionSoftwareVersion": "v1.0.20211006",
  "DerivedVendorReportedEchoSpacing": 0.000560011,
  "DeviceSerialNumber": "167006",
  "DwellTime": 2.1e-06,
  "EchoTime": 0.037,
  "EchoTrainLength": 104,
  "EffectiveEchoSpacing": 0.000560011,
  "FlipAngle": 52,
  "HeudiconvVersion": "0.10.0",
  "ImageComments": "Unaliased MB4/PE3/LB",
  "ImageOrientationPatientDICOM": [0.997587, 0.0180176, 0.0670547, -0.00017416, 0.966391, -0.257078],
  "ImageOrientationText": "Tra>Cor(-14.9)>Sag(4.0)",
  "ImageType": [
    "ORIGINAL",
    "PRIMARY",
    "M",
    "MB",
    "ND",
    "MOSAIC"
],
  "ImagingFrequency": 123.259,
  "InPlanePhaseEncodingDirectionDICOM": "COL",
  "InstitutionAddress": "Chemin Queen-Mary 4565,Montreal,District,CA,H3W 1W5",
  "InstitutionName": "IUGM",
  "InstitutionalDepartmentName": "Department",
  "MRAcquisitionType": "2D",
  "MagneticFieldStrength": 3,
  "Manufacturer": "Siemens",
  "ManufacturersModelName": "Prisma_fit",
  "MatrixCoilMode": "SENSE",
  "Modality": "MR",
  "MultibandAccelerationFactor": 4,
  "PartialFourier": 1,
  "PatientPosition": "HFS",
  "PercentPhaseFOV": 100,
  "PercentSampling": 100,
  "PhaseEncodingDirection": "j",
  "PhaseEncodingSteps": 104,
  "PhaseResolution": 1,
  "PixelBandwidth": 2290,
  "ProcedureStepDescription": "localizers^fLoc",
  "ProtocolName": "task_fLoc_run-1",
  "PulseSequenceDetails": "%CustomerSeq%\\cmrr_mbep2d_bold",
  "ReceiveCoilActiveElements": "HC1-7;NC1,2",
  "ReceiveCoilName": "HeadNeck_64",
  "ReconMatrixPE": 104,
  "RepetitionTime": 1.49,
  "SAR": 0.0504053,
  "ScanOptions": "FS",
  "ScanningSequence": "EP",
  "SequenceName": "epfid2d1_104",
  "SequenceVariant": "SK\\SS",
  "SeriesDescription": "task_fLoc_run-1",
  "SeriesNumber": 10,
  "ShimSetting": [656, -7210, -8792, 689, 99, 29, 42, 0],
  "SliceThickness": 2,
  "SliceTiming": [0, 0.7825, 0.0975, 0.88, 0.195, 0.98, 0.2925, 1.0775, 0.39, 1.175, 0.49, 1.2725, 0.5875, 1.37, 0.685, 0, 0.7825, 0.0975, 0.88, 0.195, 0.98, 0.2925, 1.0775, 0.39, 1.175, 0.49, 1.2725, 0.5875, 1.37, 0.685, 0, 0.7825, 0.0975, 0.88, 0.195, 0.98, 0.2925, 1.0775, 0.39, 1.175, 0.49, 1.2725, 0.5875, 1.37, 0.685, 0, 0.7825, 0.0975, 0.88, 0.195, 0.98, 0.2925, 1.0775, 0.39, 1.175, 0.49, 1.2725, 0.5875, 1.37, 0.685],
  "SoftwareVersions": "syngo MR E11",
  "SpacingBetweenSlices": 2,
  "StationName": "MRC35049",
  "TaskName": "fLoc",
  "TotalReadoutTime": 0.0576811,
  "TxRefAmp": 240.07,
  "WipMemBlock": "5eeb6615-ba74-44e2-acab-3c8d88b0b8b5||Sequence: R016 ve11c/master r/e634e98; Dec 19 2017 11:00:25 by eja",
  "dcmmeta_affine": [
    [-1.9951732158660889, -0.0003483192704152316, 0.13886594772338867, 105.77143859863281],
    [-0.03603522107005119, 1.9327811002731323, -0.5128923654556274, -72.58175659179688],
    [0.13410942256450653, 0.5141565799713135, 1.928122878074646, -66.28749084472656],
    [0.0, 0.0, 0.0, 1.0]
],
  "dcmmeta_reorient_transform": [
    [0.0, -1.0, 0.0, 103.0],
    [1.0, 0.0, 0.0, 0.0],
    [0.0, 0.0, 1.0, 0.0],
    [0.0, 0.0, 0.0, 1.0]
],
  "dcmmeta_shape": [104, 104, 60, 155],
  "dcmmeta_slice_dim": 2,
  "dcmmeta_version": 0.6,
  "global": {
    "const": {
      "AcquisitionMatrix": [104, 0, 0, 104],
      "AngioFlag": "N",
      "BitsAllocated": 16,
      "BitsStored": 16,
      "BodyPartExamined": "BRAIN",
      "Columns": 832,
      "EchoNumbers": 1,
      "EchoTime": 37.0,
      "EchoTrainLength": 104,
      "FlipAngle": 52.0,
      "HighBit": 15,
      "ImageOrientationPatient": [0.99758660351782, 0.0180176106516, 0.06705471041012, -0.0001741596387, 0.96639056670104, -0.2570782804121],
      "ImagePositionPatient": [-831.85181844377, -843.14385645657, 125.0077904785],
      "ImageType": [
        "ORIGINAL",
        "PRIMARY",
        "M",
        "MB",
        "ND",
        "MOSAIC"
],
      "ImagedNucleus": "1H",
      "ImagingFrequency": 123.258924,
      "InPlanePhaseEncodingDirection": "COL",
      "MRAcquisitionType": "2D",
      "MagneticFieldStrength": 3.0,
      "Manufacturer": "SIEMENS",
      "ManufacturerModelName": "Prisma_fit",
      "Modality": "MR",
      "NumberOfAverages": 1.0,
      "NumberOfPhaseEncodingSteps": 104,
      "PercentPhaseFieldOfView": 100.0,
      "PercentSampling": 100.0,
      "PerformedProcedureStepStartTime": "135510.345000",
      "PhotometricInterpretation": "MONOCHROME2",
      "PixelBandwidth": 2290.0,
      "PixelRepresentation": 0,
      "PixelSpacing": [2.0, 2.0],
      "ProtocolName": "task_fLoc_run-1",
      "RepetitionTime": 1490.0,
      "Rows": 832,
      "SAR": 0.05040535091094,
      "SamplesPerPixel": 1,
      "ScanOptions": "FS",
      "ScanningSequence": "EP",
      "SequenceName": "epfid2d1_104",
      "SequenceVariant": [
        "SK",
        "SS"
],
      "SeriesDescription": "task_fLoc_run-1",
      "SeriesNumber": 10,
      "SeriesTime": "140058.774000",
      "SliceLocation": -37.947877619407,
      "SliceThickness": 2.0,
      "SmallestImagePixelValue": 0,
      "SoftwareVersions": "syngo MR E11",
      "SpacingBetweenSlices": 1.999999988129,
      "SpecificCharacterSet": "ISO_IR 100",
      "StudyID": "1",
      "StudyTime": "135510.263000",
      "TransmitCoilName": "Body",
      "VariableFlipAngleFlag": "N",
      "WindowCenterWidthExplanation": "Algo1",
      "dBdt": 0.0},
    "slices": {}
  },
  "time": {
    "samples": {
      "AcquisitionNumber": [1, 2, 3, 4, 5, 6, 7, 8, 9, 10, 11, 12, 13, 14, 15, 16, 17, 18, 19, 20, 21, 22, 23, 24, 25, 26, 27, 28, 29, 30, 31, 32, 33, 34, 35, 36, 37, 38, 39, 40, 41, 42, 43, 44, 45, 46, 47, 48, 49, 50, 51, 52, 53, 54, 55, 56, 57, 58, 59, 60, 61, 62, 63, 64, 65, 66, 67, 68, 69, 70, 71, 72, 73, 74, 75, 76, 77, 78, 79, 80, 81, 82, 83, 84, 85, 86, 87, 88, 89, 90, 91, 92, 93, 94, 95, 96, 97, 98, 99, 100, 101, 102, 103, 104, 105, 106, 107, 108, 109, 110, 111, 112, 113, 114, 115, 116, 117, 118, 119, 120, 121, 122, 123, 124, 125, 126, 127, 128, 129, 130, 131, 132, 133, 134, 135, 136, 137, 138, 139, 140, 141, 142, 143, 144, 145, 146, 147, 148, 149, 150, 151, 152, 153, 154, 155],
      "AcquisitionTime": ["135943.227500", "135944.717500", "135946.207500", "135947.697500", "135949.187500", "135950.677500", "135952.167500", "135953.657500", "135955.147500", "135956.637500", "135958.127500", "135959.617500", "140001.107500", "140002.597500", "140004.087500", "140005.577500", "140007.067500", "140008.557500", "140010.047500", "140011.537500", "140013.027500", "140014.517500", "140016.007500", "140017.497500", "140018.987500", "140020.477500", "140021.967500", "140023.457500", "140024.947500", "140026.437500", "140027.927500", "140029.417500", "140030.907500", "140032.397500", "140033.887500", "140035.377500", "140036.867500", "140038.357500", "140039.847500", "140041.337500", "140042.827500", "140044.317500", "140045.807500", "140047.297500", "140048.787500", "140050.277500", "140051.767500", "140053.257500", "140054.747500", "140056.237500", "140057.727500", "140059.217500", "140100.707500", "140102.197500", "140103.687500", "140105.177500", "140106.667500", "140108.157500", "140109.647500", "140111.137500", "140112.627500", "140114.117500", "140115.607500", "140117.097500", "140118.587500", "140120.077500", "140121.567500", "140123.057500", "140124.547500", "140126.037500", "140127.527500", "140129.017500", "140130.507500", "140131.997500", "140133.487500", "140134.977500", "140136.467500", "140137.957500", "140139.447500", "140140.937500", "140142.427500", "140143.917500", "140145.407500", "140146.897500", "140148.387500", "140149.877500", "140151.367500", "140152.857500", "140154.347500", "140155.837500", "140157.327500", "140158.817500", "140200.307500", "140201.797500", "140203.287500", "140204.777500", "140206.267500", "140207.757500", "140209.247500", "140210.737500", "140212.227500", "140213.717500", "140215.207500", "140216.697500", "140218.187500", "140219.677500", "140221.167500", "140222.657500", "140224.147500", "140225.637500", "140227.127500", "140228.617500", "140230.107500", "140231.597500", "140233.087500", "140234.577500", "140236.067500", "140237.557500", "140239.047500", "140240.537500", "140242.027500", "140243.517500", "140245.007500", "140246.497500", "140247.987500", "140249.477500", "140250.967500", "140252.457500", "140253.947500", "140255.437500", "140256.927500", "140258.417500", "140259.907500", "140301.397500", "140302.887500", "140304.377500", "140305.867500", "140307.357500", "140308.847500", "140310.337500", "140311.827500", "140313.317500", "140314.807500", "140316.297500", "140317.787500", "140319.277500", "140320.767500", "140322.257500", "140323.747500", "140325.237500", "140326.727500", "140328.217500", "140329.707500", "140331.197500", "140332.687500"],
      "ContentTime": ["140058.777000", "140058.781000", "140058.784000", "140058.788000", "140058.791000", "140058.794000", "140058.798000", "140058.801000", "140058.804000", "140058.814000", "140058.817000", "140058.821000", "140058.824000", "140058.827000", "140058.831000", "140058.834000", "140058.837000", "140058.841000", "140058.844000", "140058.847000", "140058.851000", "140058.854000", "140118.732000", "140118.736000", "140118.739000", "140118.742000", "140118.746000", "140118.749000", "140118.752000", "140118.756000", "140118.759000", "140118.762000", "140118.765000", "140118.769000", "140118.772000", "140118.775000", "140118.779000", "140118.782000", "140118.785000", "140118.788000", "140118.792000", "140118.795000", "140138.732000", "140138.736000", "140138.739000", "140138.743000", "140138.746000", "140138.749000", "140138.753000", "140138.756000", "140138.759000", "140138.762000", "140138.766000", "140138.769000", "140138.773000", "140138.777000", "140138.780000", "140138.783000", "140138.787000", "140138.790000", "140138.793000", "140138.797000", "140158.732000", "140158.736000", "140158.752000", "140158.756000", "140158.759000", "140158.762000", "140158.765000", "140158.769000", "140158.772000", "140158.775000", "140158.779000", "140158.782000", "140158.785000", "140158.789000", "140158.792000", "140158.795000", "140158.799000", "140158.802000", "140158.805000", "140158.809000", "140218.732000", "140218.736000", "140218.739000", "140218.743000", "140218.746000", "140218.749000", "140218.753000", "140218.756000", "140218.759000", "140218.763000", "140218.766000", "140218.770000", "140218.773000", "140218.777000", "140218.780000", "140218.783000", "140218.787000", "140218.790000", "140218.793000", "140218.797000", "140258.733000", "140258.737000", "140258.741000", "140258.744000", "140258.748000", "140258.751000", "140258.754000", "140258.758000", "140258.761000", "140258.764000", "140258.768000", "140258.771000", "140258.774000", "140258.778000", "140258.781000", "140258.784000", "140258.788000", "140258.791000", "140258.794000", "140258.798000", "140258.801000", "140258.804000", "140258.808000", "140258.811000", "140258.815000", "140258.818000", "140258.821000", "140258.825000", "140335.194000", "140335.197000", "140335.201000", "140335.204000", "140335.208000", "140335.211000", "140335.215000", "140335.219000", "140335.222000", "140335.225000", "140335.229000", "140335.232000", "140335.236000", "140335.239000", "140335.242000", "140335.246000", "140335.249000", "140335.252000", "140335.256000", "140335.259000", "140335.262000", "140335.266000", "140335.269000", "140335.272000", "140335.276000"],
      "InstanceCreationTime": ["140058.777000", "140058.781000", "140058.784000", "140058.788000", "140058.791000", "140058.794000", "140058.798000", "140058.801000", "140058.804000", "140058.814000", "140058.817000", "140058.821000", "140058.824000", "140058.827000", "140058.831000", "140058.834000", "140058.837000", "140058.841000", "140058.844000", "140058.847000", "140058.851000", "140058.854000", "140118.732000", "140118.736000", "140118.739000", "140118.742000", "140118.746000", "140118.749000", "140118.752000", "140118.756000", "140118.759000", "140118.762000", "140118.765000", "140118.769000", "140118.772000", "140118.775000", "140118.779000", "140118.782000", "140118.785000", "140118.788000", "140118.792000", "140118.795000", "140138.732000", "140138.736000", "140138.739000", "140138.743000", "140138.746000", "140138.749000", "140138.753000", "140138.756000", "140138.759000", "140138.762000", "140138.766000", "140138.769000", "140138.773000", "140138.777000", "140138.780000", "140138.783000", "140138.787000", "140138.790000", "140138.793000", "140138.797000", "140158.732000", "140158.736000", "140158.752000", "140158.756000", "140158.759000", "140158.762000", "140158.765000", "140158.769000", "140158.772000", "140158.775000", "140158.779000", "140158.782000", "140158.785000", "140158.789000", "140158.792000", "140158.795000", "140158.799000", "140158.802000", "140158.805000", "140158.809000", "140218.732000", "140218.736000", "140218.739000", "140218.743000", "140218.746000", "140218.749000", "140218.753000", "140218.756000", "140218.759000", "140218.763000", "140218.766000", "140218.770000", "140218.773000", "140218.777000", "140218.780000", "140218.783000", "140218.787000", "140218.790000", "140218.793000", "140218.797000", "140258.733000", "140258.737000", "140258.741000", "140258.744000", "140258.748000", "140258.751000", "140258.754000", "140258.758000", "140258.761000", "140258.764000", "140258.768000", "140258.771000", "140258.774000", "140258.778000", "140258.781000", "140258.784000", "140258.788000", "140258.791000", "140258.794000", "140258.798000", "140258.801000", "140258.804000", "140258.808000", "140258.811000", "140258.815000", "140258.818000", "140258.821000", "140258.825000", "140335.194000", "140335.197000", "140335.201000", "140335.204000", "140335.208000", "140335.211000", "140335.215000", "140335.219000", "140335.222000", "140335.225000", "140335.229000", "140335.232000", "140335.236000", "140335.239000", "140335.242000", "140335.246000", "140335.249000", "140335.252000", "140335.256000", "140335.259000", "140335.262000", "140335.266000", "140335.269000", "140335.272000", "140335.276000"],
      "InstanceNumber": [1, 2, 3, 4, 5, 6, 7, 8, 9, 10, 11, 12, 13, 14, 15, 16, 17, 18, 19, 20, 21, 22, 23, 24, 25, 26, 27, 28, 29, 30, 31, 32, 33, 34, 35, 36, 37, 38, 39, 40, 41, 42, 43, 44, 45, 46, 47, 48, 49, 50, 51, 52, 53, 54, 55, 56, 57, 58, 59, 60, 61, 62, 63, 64, 65, 66, 67, 68, 69, 70, 71, 72, 73, 74, 75, 76, 77, 78, 79, 80, 81, 82, 83, 84, 85, 86, 87, 88, 89, 90, 91, 92, 93, 94, 95, 96, 97, 98, 99, 100, 101, 102, 103, 104, 105, 106, 107, 108, 109, 110, 111, 112, 113, 114, 115, 116, 117, 118, 119, 120, 121, 122, 123, 124, 125, 126, 127, 128, 129, 130, 131, 132, 133, 134, 135, 136, 137, 138, 139, 140, 141, 142, 143, 144, 145, 146, 147, 148, 149, 150, 151, 152, 153, 154, 155],
      "LargestImagePixelValue": [40195, 38638, 37921, 37860, 37139, 37593, 37737, 37359, 37777, 36993, 37290, 37226, 37314, 37512, 37241, 37455, 37007, 37115, 37146, 37204, 37224, 37272, 37363, 37450, 37347, 37403, 37137, 37165, 37132, 37051, 37089, 37259, 37047, 37363, 36757, 37349, 37410, 37253, 37006, 36698, 36877, 37098, 36918, 37399, 37106, 37485, 37228, 37236, 36924, 37216, 37174, 36981, 37396, 37286, 37353, 37054, 37242, 37030, 37094, 37209, 37102, 37312, 37205, 37242, 37463, 37207, 37385, 37013, 37340, 37282, 37120, 37045, 37518, 37399, 37052, 37497, 37297, 37119, 37417, 37052, 37315, 37117, 37252, 37131, 37133, 37423, 37183, 36796, 37204, 36991, 37606, 37360, 37386, 37230, 37028, 36929, 37370, 37203, 36761, 37193, 36891, 36834, 37119, 37409, 37168, 36985, 37299, 37083, 37311, 37339, 37221, 37000, 36934, 37240, 37041, 37224, 37173, 37142, 37304, 37049, 37324, 36741, 36894, 37148, 37035, 37363, 37155, 37169, 37111, 37413, 37267, 37347, 37162, 37302, 37039, 37112, 37130, 37132, 37106, 37123, 37210, 37047, 36876, 36773, 36803, 37094, 37099, 37116, 37131, 37025, 37195, 37425, 37188, 37019, 37379],
      "WindowCenter": [10157.0, 10120.0, 10101.0, 10083.0, 10058.0, 10046.0, 10050.0, 10068.0, 10079.0, 10068.0, 10065.0, 10063.0, 10071.0, 10065.0, 10064.0, 10072.0, 10074.0, 10066.0, 10058.0, 10056.0, 10054.0, 10037.0, 10034.0, 10044.0, 10060.0, 10064.0, 10058.0, 10056.0, 10047.0, 10045.0, 10055.0, 10065.0, 10064.0, 10056.0, 10049.0, 10054.0, 10069.0, 10071.0, 10081.0, 10077.0, 10075.0, 10058.0, 10049.0, 10054.0, 10057.0, 10061.0, 10063.0, 10063.0, 10074.0, 10073.0, 10074.0, 10074.0, 10072.0, 10056.0, 10045.0, 10044.0, 10054.0, 10064.0, 10066.0, 10065.0, 10056.0, 10046.0, 10045.0, 10045.0, 10052.0, 10049.0, 10056.0, 10057.0, 10062.0, 10054.0, 10047.0, 10054.0, 10053.0, 10054.0, 10054.0, 10069.0, 10071.0, 10058.0, 10063.0, 10066.0, 10073.0, 10065.0, 10050.0, 10047.0, 10047.0, 10052.0, 10041.0, 10048.0, 10048.0, 10054.0, 10060.0, 10056.0, 10055.0, 10055.0, 10063.0, 10059.0, 10055.0, 10047.0, 10039.0, 10046.0, 10047.0, 10040.0, 10047.0, 10054.0, 10056.0, 10047.0, 10045.0, 10044.0, 10053.0, 10061.0, 10057.0, 10064.0, 10058.0, 10048.0, 10039.0, 10039.0, 10046.0, 10054.0, 10054.0, 10047.0, 10044.0, 10031.0, 10037.0, 10037.0, 10030.0, 10043.0, 10046.0, 10045.0, 10037.0, 10049.0, 10051.0, 10051.0, 10040.0, 10045.0, 10044.0, 10046.0, 10053.0, 10048.0, 10040.0, 10030.0, 10031.0, 10040.0, 10042.0, 10040.0, 10031.0, 10023.0, 10037.0, 10056.0, 10048.0, 10039.0, 10030.0, 10027.0, 10027.0, 10037.0, 10037.0],
      "WindowWidth": [21616.0, 21511.0, 21456.0, 21407.0, 21348.0, 21317.0, 21324.0, 21366.0, 21393.0, 21370.0, 21360.0, 21357.0, 21373.0, 21361.0, 21358.0, 21376.0, 21383.0, 21365.0, 21347.0, 21342.0, 21332.0, 21294.0, 21285.0, 21311.0, 21346.0, 21360.0, 21349.0, 21339.0, 21319.0, 21314.0, 21340.0, 21364.0, 21359.0, 21340.0, 21325.0, 21334.0, 21367.0, 21373.0, 21396.0, 21392.0, 21383.0, 21344.0, 21324.0, 21335.0, 21344.0, 21350.0, 21355.0, 21358.0, 21381.0, 21380.0, 21384.0, 21382.0, 21373.0, 21335.0, 21311.0, 21310.0, 21334.0, 21357.0, 21365.0, 21358.0, 21337.0, 21315.0, 21313.0, 21314.0, 21329.0, 21325.0, 21340.0, 21344.0, 21350.0, 21332.0, 21319.0, 21333.0, 21332.0, 21332.0, 21335.0, 21367.0, 21373.0, 21347.0, 21355.0, 21364.0, 21377.0, 21359.0, 21326.0, 21317.0, 21318.0, 21328.0, 21308.0, 21325.0, 21322.0, 21334.0, 21347.0, 21342.0, 21340.0, 21337.0, 21354.0, 21346.0, 21332.0, 21316.0, 21300.0, 21316.0, 21318.0, 21303.0, 21318.0, 21335.0, 21338.0, 21319.0, 21311.0, 21311.0, 21331.0, 21350.0, 21343.0, 21358.0, 21344.0, 21322.0, 21301.0, 21300.0, 21315.0, 21336.0, 21335.0, 21316.0, 21306.0, 21280.0, 21293.0, 21294.0, 21280.0, 21304.0, 21315.0, 21310.0, 21295.0, 21318.0, 21323.0, 21320.0, 21300.0, 21311.0, 21306.0, 21314.0, 21330.0, 21320.0, 21301.0, 21277.0, 21281.0, 21304.0, 21311.0, 21302.0, 21280.0, 21262.0, 21295.0, 21337.0, 21320.0, 21298.0, 21276.0, 21269.0, 21271.0, 21294.0, 21297.0]
    },
    "slices": {}
  }
}