{
  "AcquisitionMatrixPE": 104,
  "AcquisitionNumber": 1,
  "AcquisitionTime": "18:24:37.940000",
  "BandwidthPerPixelPhaseEncode": 17.17,
  "BaseResolution": 104,
  "BodyPartExamined": "BRAIN",
  "CoilCombinationMethod": "Sum of Squares",
  "ConsistencyInfo": "N4_VE11C_LATEST_20160120",
  "ConversionSoftware": "dcm2niix",
  "ConversionSoftwareVersion": "v1.0.20211006",
  "DerivedVendorReportedEchoSpacing": 0.000560011,
  "DeviceSerialNumber": "167006",
  "DwellTime": 2.1e-06,
  "EchoTime": 0.037,
  "EchoTrainLength": 104,
  "EffectiveEchoSpacing": 0.000560011,
  "FlipAngle": 52,
  "HeudiconvVersion": "0.10.0",
  "ImageComments": "Unaliased MB4/PE3/LB",
  "ImageOrientationPatientDICOM": [0.995134, 0.0909897, 0.0378138, -0.0741259, 0.944141, -0.321098],
  "ImageOrientationText": "Tra>Cor(-18.5)>Sag(3.7)",
  "ImageType": [
    "ORIGINAL",
    "PRIMARY",
    "M",
    "MB",
    "ND",
    "MOSAIC"
],
  "ImagingFrequency": 123.259,
  "InPlanePhaseEncodingDirectionDICOM": "COL",
  "InstitutionAddress": "Chemin Queen-Mary 4565,Montreal,District,CA,H3W 1W5",
  "InstitutionName": "IUGM",
  "InstitutionalDepartmentName": "Department",
  "MRAcquisitionType": "2D",
  "MagneticFieldStrength": 3,
  "Manufacturer": "Siemens",
  "ManufacturersModelName": "Prisma_fit",
  "MatrixCoilMode": "SENSE",
  "Modality": "MR",
  "MultibandAccelerationFactor": 4,
  "PartialFourier": 1,
  "PatientPosition": "HFS",
  "PercentPhaseFOV": 100,
  "PercentSampling": 100,
  "PhaseEncodingDirection": "j",
  "PhaseEncodingSteps": 104,
  "PhaseResolution": 1,
  "PixelBandwidth": 2290,
  "ProcedureStepDescription": "localizers^fLoc",
  "ProtocolName": "task_fLoc_run-2",
  "PulseSequenceDetails": "%CustomerSeq%\\cmrr_mbep2d_bold",
  "ReceiveCoilActiveElements": "HC1-7;NC1,2",
  "ReceiveCoilName": "HeadNeck_64",
  "ReconMatrixPE": 104,
  "RepetitionTime": 1.49,
  "SAR": 0.0445662,
  "ScanOptions": "FS",
  "ScanningSequence": "EP",
  "SequenceName": "epfid2d1_104",
  "SequenceVariant": "SK\\SS",
  "SeriesDescription": "task_fLoc_run-2",
  "SeriesNumber": 13,
  "ShimSetting": [634, -7189, -8805, 678, 92, 20, -32, -16],
  "SliceThickness": 2,
  "SliceTiming": [0, 0.785, 0.0975, 0.8825, 0.195, 0.98, 0.295, 1.0775, 0.3925, 1.175, 0.49, 1.275, 0.5875, 1.3725, 0.685, 0, 0.785, 0.0975, 0.8825, 0.195, 0.98, 0.295, 1.0775, 0.3925, 1.175, 0.49, 1.275, 0.5875, 1.3725, 0.685, 0, 0.785, 0.0975, 0.8825, 0.195, 0.98, 0.295, 1.0775, 0.3925, 1.175, 0.49, 1.275, 0.5875, 1.3725, 0.685, 0, 0.785, 0.0975, 0.8825, 0.195, 0.98, 0.295, 1.0775, 0.3925, 1.175, 0.49, 1.275, 0.5875, 1.3725, 0.685],
  "SoftwareVersions": "syngo MR E11",
  "SpacingBetweenSlices": 2,
  "StationName": "MRC35049",
  "TaskName": "fLoc",
  "TotalReadoutTime": 0.0576811,
  "TxRefAmp": 260.442,
  "WipMemBlock": "135a3e74-a1fb-42ec-967d-1211761f04ee||Sequence: R016 ve11c/master r/e634e98; Dec 19 2017 11:00:25 by eja",
  "dcmmeta_affine": [
    [-1.990267276763916, -0.1482517123222351, 0.1298363357782364, 110.35458374023438],
    [-0.18197938799858093, 1.8882813453674316, -0.6334643959999084, -52.54496383666992],
    [0.07562766969203949, 0.642195463180542, 1.8925817012786865, -59.270751953125],
    [0.0, 0.0, 0.0, 1.0]
],
  "dcmmeta_reorient_transform": [
    [0.0, -1.0, 0.0, 103.0],
    [1.0, 0.0, 0.0, 0.0],
    [0.0, 0.0, 1.0, 0.0],
    [0.0, 0.0, 0.0, 1.0]
],
  "dcmmeta_shape": [104, 104, 60, 155],
  "dcmmeta_slice_dim": 2,
  "dcmmeta_version": 0.6,
  "global": {
    "const": {
      "AcquisitionMatrix": [104, 0, 0, 104],
      "AngioFlag": "N",
      "BitsAllocated": 16,
      "BitsStored": 16,
      "BodyPartExamined": "BRAIN",
      "Columns": 832,
      "EchoNumbers": 1,
      "EchoTime": 37.0,
      "EchoTrainLength": 104,
      "FlipAngle": 52.0,
      "HighBit": 15,
      "ImageOrientationPatient": [0.99513365388756, 0.09098969641323, 0.03781383406942, -0.0741258578107, 0.94414066551248, -0.3210977435758],
      "ImagePositionPatient": [-765.57833447522, -895.52291760413, 213.10606921567],
      "ImageType": [
        "ORIGINAL",
        "PRIMARY",
        "M",
        "MB",
        "ND",
        "MOSAIC"
],
      "ImagedNucleus": "1H",
      "ImagingFrequency": 123.259091,
      "InPlanePhaseEncodingDirection": "COL",
      "MRAcquisitionType": "2D",
      "MagneticFieldStrength": 3.0,
      "Manufacturer": "SIEMENS",
      "ManufacturerModelName": "Prisma_fit",
      "Modality": "MR",
      "NumberOfAverages": 1.0,
      "NumberOfPhaseEncodingSteps": 104,
      "PercentPhaseFieldOfView": 100.0,
      "PercentSampling": 100.0,
      "PerformedProcedureStepStartTime": "181557.220000",
      "PhotometricInterpretation": "MONOCHROME2",
      "PixelBandwidth": 2290.0,
      "PixelRepresentation": 0,
      "PixelSpacing": [2.0, 2.0],
      "ProtocolName": "task_fLoc_run-2",
      "RepetitionTime": 1490.0,
      "Rows": 832,
      "SAR": 0.0445661879259,
      "SamplesPerPixel": 1,
      "ScanOptions": "FS",
      "ScanningSequence": "EP",
      "SequenceName": "epfid2d1_104",
      "SequenceVariant": [
        "SK",
        "SS"
],
      "SeriesDescription": "task_fLoc_run-2",
      "SeriesNumber": 13,
      "SeriesTime": "182609.593000",
      "SliceLocation": -32.280671498146,
      "SliceThickness": 2.0,
      "SmallestImagePixelValue": 0,
      "SoftwareVersions": "syngo MR E11",
      "SpacingBetweenSlices": 2.0000000611844,
      "SpecificCharacterSet": "ISO_IR 100",
      "StudyID": "1",
      "StudyTime": "181557.150000",
      "TransmitCoilName": "Body",
      "VariableFlipAngleFlag": "N",
      "WindowCenterWidthExplanation": "Algo1",
      "dBdt": 0.0},
    "slices": {}
  },
  "time": {
    "samples": {
      "AcquisitionNumber": [1, 2, 3, 4, 5, 6, 7, 8, 9, 10, 11, 12, 13, 14, 15, 16, 17, 18, 19, 20, 21, 22, 23, 24, 25, 26, 27, 28, 29, 30, 31, 32, 33, 34, 35, 36, 37, 38, 39, 40, 41, 42, 43, 44, 45, 46, 47, 48, 49, 50, 51, 52, 53, 54, 55, 56, 57, 58, 59, 60, 61, 62, 63, 64, 65, 66, 67, 68, 69, 70, 71, 72, 73, 74, 75, 76, 77, 78, 79, 80, 81, 82, 83, 84, 85, 86, 87, 88, 89, 90, 91, 92, 93, 94, 95, 96, 97, 98, 99, 100, 101, 102, 103, 104, 105, 106, 107, 108, 109, 110, 111, 112, 113, 114, 115, 116, 117, 118, 119, 120, 121, 122, 123, 124, 125, 126, 127, 128, 129, 130, 131, 132, 133, 134, 135, 136, 137, 138, 139, 140, 141, 142, 143, 144, 145, 146, 147, 148, 149, 150, 151, 152, 153, 154, 155],
      "AcquisitionTime": ["182437.940000", "182439.430000", "182440.920000", "182442.410000", "182443.900000", "182445.390000", "182446.880000", "182448.370000", "182449.860000", "182451.350000", "182452.840000", "182454.330000", "182455.820000", "182457.310000", "182458.800000", "182500.290000", "182501.780000", "182503.270000", "182504.760000", "182506.250000", "182507.740000", "182509.230000", "182510.720000", "182512.210000", "182513.700000", "182515.190000", "182516.680000", "182518.170000", "182519.660000", "182521.150000", "182522.640000", "182524.130000", "182525.620000", "182527.110000", "182528.600000", "182530.090000", "182531.580000", "182533.070000", "182534.560000", "182536.050000", "182537.540000", "182539.030000", "182540.520000", "182542.010000", "182543.500000", "182544.990000", "182546.480000", "182547.970000", "182549.460000", "182550.950000", "182552.440000", "182553.930000", "182555.420000", "182556.910000", "182558.400000", "182559.890000", "182601.380000", "182602.870000", "182604.360000", "182605.850000", "182607.340000", "182608.830000", "182610.320000", "182611.810000", "182613.300000", "182614.790000", "182616.280000", "182617.770000", "182619.260000", "182620.750000", "182622.240000", "182623.730000", "182625.220000", "182626.710000", "182628.200000", "182629.690000", "182631.180000", "182632.670000", "182634.160000", "182635.650000", "182637.140000", "182638.630000", "182640.120000", "182641.610000", "182643.100000", "182644.590000", "182646.080000", "182647.570000", "182649.060000", "182650.550000", "182652.040000", "182653.530000", "182655.020000", "182656.510000", "182658.000000", "182659.490000", "182700.980000", "182702.470000", "182703.960000", "182705.450000", "182706.940000", "182708.430000", "182709.920000", "182711.410000", "182712.900000", "182714.390000", "182715.880000", "182717.370000", "182718.860000", "182720.350000", "182721.840000", "182723.330000", "182724.820000", "182726.310000", "182727.800000", "182729.290000", "182730.780000", "182732.270000", "182733.760000", "182735.250000", "182736.740000", "182738.230000", "182739.720000", "182741.210000", "182742.700000", "182744.190000", "182745.680000", "182747.170000", "182748.660000", "182750.150000", "182751.640000", "182753.130000", "182754.620000", "182756.110000", "182757.600000", "182759.090000", "182800.580000", "182802.070000", "182803.560000", "182805.050000", "182806.540000", "182808.030000", "182809.520000", "182811.010000", "182812.500000", "182813.990000", "182815.480000", "182816.970000", "182818.460000", "182819.950000", "182821.440000", "182822.930000", "182824.420000", "182825.910000", "182827.400000"],
      "ContentTime": ["182609.596000", "182609.600000", "182609.603000", "182609.607000", "182609.610000", "182609.613000", "182609.617000", "182609.620000", "182609.623000", "182609.627000", "182609.630000", "182609.640000", "182609.644000", "182609.647000", "182609.650000", "182609.654000", "182609.657000", "182609.660000", "182609.663000", "182609.667000", "182609.670000", "182609.673000", "182609.677000", "182609.680000", "182609.683000", "182609.686000", "182609.690000", "182609.699000", "182609.702000", "182609.706000", "182609.709000", "182609.712000", "182609.716000", "182609.719000", "182629.557000", "182629.561000", "182629.564000", "182629.568000", "182629.571000", "182629.575000", "182629.578000", "182629.581000", "182629.584000", "182629.588000", "182629.591000", "182629.594000", "182629.598000", "182629.601000", "182629.604000", "182629.608000", "182629.611000", "182629.614000", "182629.618000", "182629.621000", "182649.557000", "182649.561000", "182649.564000", "182649.567000", "182649.571000", "182649.574000", "182649.577000", "182649.581000", "182649.584000", "182649.587000", "182649.590000", "182649.594000", "182649.597000", "182649.601000", "182649.604000", "182649.607000", "182649.611000", "182649.614000", "182649.617000", "182649.620000", "182649.624000", "182709.557000", "182709.561000", "182709.564000", "182709.567000", "182709.589000", "182709.592000", "182709.595000", "182709.598000", "182709.602000", "182709.605000", "182709.608000", "182709.612000", "182709.615000", "182709.618000", "182709.621000", "182709.625000", "182709.628000", "182709.631000", "182709.635000", "182709.638000", "182749.557000", "182749.561000", "182749.564000", "182749.568000", "182749.571000", "182749.574000", "182749.578000", "182749.581000", "182749.584000", "182749.587000", "182749.591000", "182749.594000", "182749.597000", "182749.600000", "182749.604000", "182749.607000", "182749.610000", "182749.613000", "182749.617000", "182749.620000", "182749.623000", "182749.626000", "182749.630000", "182749.633000", "182749.636000", "182749.639000", "182749.643000", "182749.646000", "182749.649000", "182749.653000", "182749.656000", "182749.659000", "182749.662000", "182829.557000", "182829.561000", "182829.564000", "182829.567000", "182829.571000", "182829.574000", "182829.577000", "182829.581000", "182829.584000", "182829.587000", "182829.590000", "182829.594000", "182829.597000", "182829.600000", "182829.604000", "182829.607000", "182829.610000", "182829.613000", "182829.617000", "182829.620000", "182829.623000", "182829.627000", "182829.630000", "182829.633000", "182829.636000", "182829.640000", "182829.845000"],
      "InstanceCreationTime": ["182609.596000", "182609.600000", "182609.603000", "182609.607000", "182609.610000", "182609.613000", "182609.617000", "182609.620000", "182609.623000", "182609.627000", "182609.630000", "182609.640000", "182609.644000", "182609.647000", "182609.650000", "182609.654000", "182609.657000", "182609.660000", "182609.663000", "182609.667000", "182609.670000", "182609.673000", "182609.677000", "182609.680000", "182609.683000", "182609.686000", "182609.690000", "182609.699000", "182609.702000", "182609.706000", "182609.709000", "182609.712000", "182609.716000", "182609.719000", "182629.557000", "182629.561000", "182629.564000", "182629.568000", "182629.571000", "182629.575000", "182629.578000", "182629.581000", "182629.584000", "182629.588000", "182629.591000", "182629.594000", "182629.598000", "182629.601000", "182629.604000", "182629.608000", "182629.611000", "182629.614000", "182629.618000", "182629.621000", "182649.557000", "182649.561000", "182649.564000", "182649.567000", "182649.571000", "182649.574000", "182649.577000", "182649.581000", "182649.584000", "182649.587000", "182649.590000", "182649.594000", "182649.597000", "182649.601000", "182649.604000", "182649.607000", "182649.611000", "182649.614000", "182649.617000", "182649.620000", "182649.624000", "182709.557000", "182709.561000", "182709.564000", "182709.567000", "182709.589000", "182709.592000", "182709.595000", "182709.598000", "182709.602000", "182709.605000", "182709.608000", "182709.612000", "182709.615000", "182709.618000", "182709.621000", "182709.625000", "182709.628000", "182709.631000", "182709.635000", "182709.638000", "182749.557000", "182749.561000", "182749.564000", "182749.568000", "182749.571000", "182749.574000", "182749.578000", "182749.581000", "182749.584000", "182749.587000", "182749.591000", "182749.594000", "182749.597000", "182749.600000", "182749.604000", "182749.607000", "182749.610000", "182749.613000", "182749.617000", "182749.620000", "182749.623000", "182749.626000", "182749.630000", "182749.633000", "182749.636000", "182749.639000", "182749.643000", "182749.646000", "182749.649000", "182749.653000", "182749.656000", "182749.659000", "182749.662000", "182829.557000", "182829.561000", "182829.564000", "182829.567000", "182829.571000", "182829.574000", "182829.577000", "182829.581000", "182829.584000", "182829.587000", "182829.590000", "182829.594000", "182829.597000", "182829.600000", "182829.604000", "182829.607000", "182829.610000", "182829.613000", "182829.617000", "182829.620000", "182829.623000", "182829.627000", "182829.630000", "182829.633000", "182829.636000", "182829.640000", "182829.845000"],
      "InstanceNumber": [1, 2, 3, 4, 5, 6, 7, 8, 9, 10, 11, 12, 13, 14, 15, 16, 17, 18, 19, 20, 21, 22, 23, 24, 25, 26, 27, 28, 29, 30, 31, 32, 33, 34, 35, 36, 37, 38, 39, 40, 41, 42, 43, 44, 45, 46, 47, 48, 49, 50, 51, 52, 53, 54, 55, 56, 57, 58, 59, 60, 61, 62, 63, 64, 65, 66, 67, 68, 69, 70, 71, 72, 73, 74, 75, 76, 77, 78, 79, 80, 81, 82, 83, 84, 85, 86, 87, 88, 89, 90, 91, 92, 93, 94, 95, 96, 97, 98, 99, 100, 101, 102, 103, 104, 105, 106, 107, 108, 109, 110, 111, 112, 113, 114, 115, 116, 117, 118, 119, 120, 121, 122, 123, 124, 125, 126, 127, 128, 129, 130, 131, 132, 133, 134, 135, 136, 137, 138, 139, 140, 141, 142, 143, 144, 145, 146, 147, 148, 149, 150, 151, 152, 153, 154, 155],
      "LargestImagePixelValue": [44061, 42276, 43429, 43727, 43721, 44742, 44461, 43936, 42611, 42431, 42611, 45009, 45310, 40503, 41305, 42840, 44706, 44225, 45501, 45204, 44528, 42999, 42463, 42244, 40560, 41805, 41435, 43423, 43726, 42935, 44228, 43237, 43642, 41499, 39999, 40376, 40488, 42059, 40998, 42074, 42406, 42344, 42754, 42232, 42838, 42760, 41206, 40730, 42620, 43197, 42764, 43664, 42223, 41757, 43125, 42527, 43095, 42393, 43209, 43491, 43687, 43817, 42309, 42918, 41566, 42862, 42207, 42055, 41712, 41419, 41736, 42375, 41684, 43277, 42687, 44057, 43679, 43422, 43897, 43414, 43217, 42577, 42741, 42983, 41957, 42532, 42571, 42317, 41907, 41145, 41339, 41926, 44128, 44374, 43895, 43604, 43798, 43943, 44688, 44365, 44789, 44322, 43433, 43417, 43273, 43213, 44149, 43880, 43086, 43195, 43377, 43180, 43067, 43729, 43179, 42616, 42141, 43313, 44627, 44815, 43333, 42846, 44449, 44729, 43956, 44716, 43611, 43196, 43587, 43042, 43096, 43464, 44258, 43825, 42747, 43607, 43342, 43134, 43594, 43438, 43864, 43531, 43419, 43871, 43041, 43302, 42686, 43606, 42490, 43236, 45013, 44165, 44388, 43520, 43765],
      "WindowCenter": [10415.0, 10387.0, 10369.0, 10362.0, 10355.0, 10351.0, 10341.0, 10328.0, 10314.0, 10312.0, 10303.0, 10341.0, 10378.0, 10357.0, 10346.0, 10335.0, 10336.0, 10325.0, 10349.0, 10352.0, 10350.0, 10341.0, 10336.0, 10318.0, 10291.0, 10308.0, 10312.0, 10348.0, 10359.0, 10358.0, 10379.0, 10366.0, 10357.0, 10336.0, 10322.0, 10321.0, 10317.0, 10318.0, 10311.0, 10341.0, 10357.0, 10355.0, 10341.0, 10328.0, 10333.0, 10339.0, 10323.0, 10310.0, 10318.0, 10308.0, 10301.0, 10338.0, 10356.0, 10368.0, 10378.0, 10344.0, 10334.0, 10323.0, 10332.0, 10356.0, 10376.0, 10378.0, 10362.0, 10358.0, 10329.0, 10340.0, 10324.0, 10315.0, 10317.0, 10334.0, 10329.0, 10330.0, 10317.0, 10331.0, 10321.0, 10363.0, 10360.0, 10365.0, 10370.0, 10373.0, 10373.0, 10360.0, 10367.0, 10369.0, 10357.0, 10366.0, 10366.0, 10376.0, 10360.0, 10355.0, 10353.0, 10357.0, 10394.0, 10411.0, 10417.0, 10429.0, 10416.0, 10395.0, 10380.0, 10353.0, 10349.0, 10340.0, 10328.0, 10338.0, 10348.0, 10348.0, 10366.0, 10360.0, 10363.0, 10364.0, 10376.0, 10367.0, 10358.0, 10358.0, 10357.0, 10360.0, 10368.0, 10375.0, 10368.0, 10374.0, 10376.0, 10368.0, 10368.0, 10350.0, 10335.0, 10344.0, 10334.0, 10327.0, 10327.0, 10319.0, 10335.0, 10345.0, 10351.0, 10341.0, 10329.0, 10342.0, 10327.0, 10324.0, 10324.0, 10329.0, 10355.0, 10369.0, 10379.0, 10372.0, 10339.0, 10330.0, 10321.0, 10340.0, 10345.0, 10369.0, 10400.0, 10381.0, 10344.0, 10320.0, 10333.0],
      "WindowWidth": [22114.0, 22043.0, 21987.0, 21957.0, 21937.0, 21925.0, 21901.0, 21869.0, 21844.0, 21837.0, 21815.0, 21891.0, 21981.0, 21958.0, 21926.0, 21892.0, 21886.0, 21863.0, 21913.0, 21922.0, 21921.0, 21907.0, 21897.0, 21856.0, 21802.0, 21838.0, 21857.0, 21923.0, 21946.0, 21947.0, 21991.0, 21963.0, 21939.0, 21896.0, 21878.0, 21874.0, 21863.0, 21857.0, 21847.0, 21913.0, 21947.0, 21946.0, 21905.0, 21881.0, 21890.0, 21901.0, 21873.0, 21850.0, 21859.0, 21828.0, 21815.0, 21896.0, 21947.0, 21981.0, 22002.0, 21915.0, 21888.0, 21871.0, 21884.0, 21942.0, 21982.0, 21986.0, 21955.0, 21942.0, 21882.0, 21904.0, 21867.0, 21844.0, 21854.0, 21894.0, 21884.0, 21878.0, 21852.0, 21878.0, 21861.0, 21957.0, 21943.0, 21952.0, 21963.0, 21971.0, 21969.0, 21941.0, 21955.0, 21963.0, 21940.0, 21957.0, 21960.0, 21982.0, 21947.0, 21939.0, 21933.0, 21939.0, 22017.0, 22057.0, 22070.0, 22106.0, 22074.0, 22024.0, 21986.0, 21922.0, 21914.0, 21896.0, 21873.0, 21898.0, 21928.0, 21920.0, 21951.0, 21936.0, 21947.0, 21948.0, 21971.0, 21953.0, 21930.0, 21924.0, 21930.0, 21937.0, 21964.0, 21970.0, 21949.0, 21961.0, 21984.0, 21960.0, 21952.0, 21909.0, 21877.0, 21894.0, 21879.0, 21861.0, 21859.0, 21844.0, 21887.0, 21909.0, 21920.0, 21892.0, 21872.0, 21896.0, 21863.0, 21852.0, 21855.0, 21860.0, 21924.0, 21957.0, 21978.0, 21966.0, 21886.0, 21873.0, 21849.0, 21886.0, 21913.0, 21966.0, 22031.0, 21995.0, 21900.0, 21850.0, 21882.0]
    },
    "slices": {}
  }
}