{
  "AcquisitionMatrixPE": 104,
  "AcquisitionNumber": 1,
  "AcquisitionTime": "18:19:29.485000",
  "BandwidthPerPixelPhaseEncode": 17.17,
  "BaseResolution": 104,
  "BodyPartExamined": "BRAIN",
  "CoilCombinationMethod": "Sum of Squares",
  "ConsistencyInfo": "N4_VE11C_LATEST_20160120",
  "ConversionSoftware": "dcm2niix",
  "ConversionSoftwareVersion": "v1.0.20211006",
  "DerivedVendorReportedEchoSpacing": 0.000560011,
  "DeviceSerialNumber": "167006",
  "DwellTime": 2.1e-06,
  "EchoTime": 0.037,
  "EchoTime1": 0.037,
  "EchoTime2": 0.001,
  "EchoTrainLength": 104,
  "EffectiveEchoSpacing": 0.000560011,
  "FlipAngle": 52,
  "HeudiconvVersion": "0.10.0",
  "ImageComments": "Unaliased MB4/PE3/LB",
  "ImageOrientationPatientDICOM": [0.995134, 0.0909897, 0.0378138, -0.0741259, 0.944141, -0.321098],
  "ImageOrientationText": "Tra>Cor(-18.5)>Sag(3.7)",
  "ImageType": [
    "ORIGINAL",
    "PRIMARY",
    "P",
    "MB",
    "ND",
    "MOSAIC",
    "PHASE"
],
  "ImagingFrequency": 123.259,
  "InPlanePhaseEncodingDirectionDICOM": "COL",
  "InstitutionAddress": "Chemin Queen-Mary 4565,Montreal,District,CA,H3W 1W5",
  "InstitutionName": "IUGM",
  "InstitutionalDepartmentName": "Department",
  "MRAcquisitionType": "2D",
  "MagneticFieldStrength": 3,
  "Manufacturer": "Siemens",
  "ManufacturersModelName": "Prisma_fit",
  "MatrixCoilMode": "SENSE",
  "Modality": "MR",
  "MultibandAccelerationFactor": 4,
  "PartialFourier": 1,
  "PatientPosition": "HFS",
  "PercentPhaseFOV": 100,
  "PercentSampling": 100,
  "PhaseEncodingDirection": "j",
  "PhaseEncodingSteps": 104,
  "PhaseResolution": 1,
  "PixelBandwidth": 2290,
  "ProcedureStepDescription": "localizers^fLoc",
  "ProtocolName": "task_fLoc_run-1",
  "PulseSequenceDetails": "%CustomerSeq%\\cmrr_mbep2d_bold",
  "ReceiveCoilActiveElements": "HC1-7;NC1,2",
  "ReceiveCoilName": "HeadNeck_64",
  "ReconMatrixPE": 104,
  "RepetitionTime": 1.49,
  "SAR": 0.0445662,
  "ScanOptions": "FS",
  "ScanningSequence": "EP",
  "SequenceName": "epfid2d1_104",
  "SequenceVariant": "SK\\SS",
  "SeriesDescription": "task_fLoc_run-1",
  "SeriesNumber": 11,
  "ShimSetting": [634, -7189, -8805, 678, 92, 20, -32, -16],
  "SliceThickness": 2,
  "SliceTiming": [0, 0.785, 0.0975, 0.8825, 0.195, 0.98, 0.295, 1.0775, 0.3925, 1.175, 0.49, 1.275, 0.5875, 1.3725, 0.685, 0, 0.785, 0.0975, 0.8825, 0.195, 0.98, 0.295, 1.0775, 0.3925, 1.175, 0.49, 1.275, 0.5875, 1.3725, 0.685, 0, 0.785, 0.0975, 0.8825, 0.195, 0.98, 0.295, 1.0775, 0.3925, 1.175, 0.49, 1.275, 0.5875, 1.3725, 0.685, 0, 0.785, 0.0975, 0.8825, 0.195, 0.98, 0.295, 1.0775, 0.3925, 1.175, 0.49, 1.275, 0.5875, 1.3725, 0.685],
  "SoftwareVersions": "syngo MR E11",
  "SpacingBetweenSlices": 2,
  "StationName": "MRC35049",
  "TaskName": "fLoc",
  "TotalReadoutTime": 0.0576811,
  "TxRefAmp": 260.442,
  "WipMemBlock": "26213ccb-5b0c-4b0f-a109-161e305121b5||Sequence: R016 ve11c/master r/e634e98; Dec 19 2017 11:00:25 by eja",
  "dcmmeta_affine": [
    [-1.990267276763916, -0.1482517123222351, 0.1298363357782364, 110.35458374023438],
    [-0.18197938799858093, 1.8882813453674316, -0.6334643959999084, -52.54496383666992],
    [0.07562766969203949, 0.642195463180542, 1.8925817012786865, -59.270751953125],
    [0.0, 0.0, 0.0, 1.0]
],
  "dcmmeta_reorient_transform": [
    [0.0, -1.0, 0.0, 103.0],
    [1.0, 0.0, 0.0, 0.0],
    [0.0, 0.0, 1.0, 0.0],
    [0.0, 0.0, 0.0, 1.0]
],
  "dcmmeta_shape": [104, 104, 60, 155],
  "dcmmeta_slice_dim": 2,
  "dcmmeta_version": 0.6,
  "global": {
    "const": {
      "AcquisitionMatrix": [104, 0, 0, 104],
      "AngioFlag": "N",
      "BitsAllocated": 16,
      "BitsStored": 16,
      "BodyPartExamined": "BRAIN",
      "Columns": 832,
      "EchoNumbers": 1,
      "EchoTime": 37.0,
      "EchoTrainLength": 104,
      "FlipAngle": 52.0,
      "HighBit": 15,
      "ImageOrientationPatient": [0.99513365388756, 0.09098969641323, 0.03781383406942, -0.0741258578107, 0.94414066551248, -0.3210977435758],
      "ImagePositionPatient": [-765.57833447522, -895.52291760413, 213.10606921567],
      "ImageType": [
        "ORIGINAL",
        "PRIMARY",
        "P",
        "MB",
        "ND",
        "MOSAIC"
],
      "ImagedNucleus": "1H",
      "ImagingFrequency": 123.259088,
      "InPlanePhaseEncodingDirection": "COL",
      "LargestImagePixelValue": 4095,
      "MRAcquisitionType": "2D",
      "MagneticFieldStrength": 3.0,
      "Manufacturer": "SIEMENS",
      "ManufacturerModelName": "Prisma_fit",
      "Modality": "MR",
      "NumberOfAverages": 1.0,
      "NumberOfPhaseEncodingSteps": 104,
      "PercentPhaseFieldOfView": 100.0,
      "PercentSampling": 100.0,
      "PerformedProcedureStepStartTime": "181557.220000",
      "PhotometricInterpretation": "MONOCHROME2",
      "PixelBandwidth": 2290.0,
      "PixelRepresentation": 0,
      "PixelSpacing": [2.0, 2.0],
      "ProtocolName": "task_fLoc_run-1",
      "RepetitionTime": 1490.0,
      "RescaleIntercept": -4096.0,
      "RescaleSlope": 2.0,
      "RescaleType": "US",
      "Rows": 832,
      "SAR": 0.0445661879259,
      "SamplesPerPixel": 1,
      "ScanOptions": "FS",
      "ScanningSequence": "EP",
      "SequenceName": "epfid2d1_104",
      "SequenceVariant": [
        "SK",
        "SS"
],
      "SeriesDescription": "task_fLoc_run-1",
      "SeriesNumber": 11,
      "SeriesTime": "182101.022000",
      "SliceLocation": -32.280671498146,
      "SliceThickness": 2.0,
      "SmallestImagePixelValue": 0,
      "SoftwareVersions": "syngo MR E11",
      "SpacingBetweenSlices": 2.0000000611844,
      "SpecificCharacterSet": "ISO_IR 100",
      "StudyID": "1",
      "StudyTime": "181557.150000",
      "TransmitCoilName": "Body",
      "VariableFlipAngleFlag": "N",
      "WindowCenterWidthExplanation": "Algo1",
      "dBdt": 0.0},
    "slices": {}
  },
  "time": {
    "samples": {
      "AcquisitionNumber": [1, 2, 3, 4, 5, 6, 7, 8, 9, 10, 11, 12, 13, 14, 15, 16, 17, 18, 19, 20, 21, 22, 23, 24, 25, 26, 27, 28, 29, 30, 31, 32, 33, 34, 35, 36, 37, 38, 39, 40, 41, 42, 43, 44, 45, 46, 47, 48, 49, 50, 51, 52, 53, 54, 55, 56, 57, 58, 59, 60, 61, 62, 63, 64, 65, 66, 67, 68, 69, 70, 71, 72, 73, 74, 75, 76, 77, 78, 79, 80, 81, 82, 83, 84, 85, 86, 87, 88, 89, 90, 91, 92, 93, 94, 95, 96, 97, 98, 99, 100, 101, 102, 103, 104, 105, 106, 107, 108, 109, 110, 111, 112, 113, 114, 115, 116, 117, 118, 119, 120, 121, 122, 123, 124, 125, 126, 127, 128, 129, 130, 131, 132, 133, 134, 135, 136, 137, 138, 139, 140, 141, 142, 143, 144, 145, 146, 147, 148, 149, 150, 151, 152, 153, 154, 155],
      "AcquisitionTime": ["181929.485000", "181930.975000", "181932.465000", "181933.955000", "181935.445000", "181936.935000", "181938.425000", "181939.915000", "181941.405000", "181942.895000", "181944.385000", "181945.875000", "181947.365000", "181948.855000", "181950.345000", "181951.835000", "181953.325000", "181954.815000", "181956.305000", "181957.795000", "181959.285000", "182000.775000", "182002.265000", "182003.755000", "182005.245000", "182006.735000", "182008.225000", "182009.715000", "182011.205000", "182012.695000", "182014.185000", "182015.675000", "182017.165000", "182018.655000", "182020.145000", "182021.635000", "182023.125000", "182024.615000", "182026.105000", "182027.595000", "182029.085000", "182030.575000", "182032.065000", "182033.555000", "182035.045000", "182036.535000", "182038.025000", "182039.515000", "182041.005000", "182042.495000", "182043.985000", "182045.475000", "182046.965000", "182048.455000", "182049.945000", "182051.435000", "182052.925000", "182054.415000", "182055.905000", "182057.395000", "182058.885000", "182100.375000", "182101.865000", "182103.355000", "182104.845000", "182106.335000", "182107.825000", "182109.315000", "182110.805000", "182112.295000", "182113.785000", "182115.275000", "182116.765000", "182118.255000", "182119.745000", "182121.235000", "182122.725000", "182124.215000", "182125.705000", "182127.195000", "182128.685000", "182130.175000", "182131.665000", "182133.155000", "182134.645000", "182136.135000", "182137.625000", "182139.115000", "182140.605000", "182142.095000", "182143.585000", "182145.075000", "182146.565000", "182148.055000", "182149.545000", "182151.035000", "182152.525000", "182154.015000", "182155.505000", "182156.995000", "182158.485000", "182159.975000", "182201.465000", "182202.955000", "182204.445000", "182205.935000", "182207.425000", "182208.915000", "182210.405000", "182211.895000", "182213.385000", "182214.875000", "182216.365000", "182217.855000", "182219.345000", "182220.835000", "182222.325000", "182223.815000", "182225.305000", "182226.795000", "182228.285000", "182229.775000", "182231.265000", "182232.755000", "182234.245000", "182235.735000", "182237.225000", "182238.715000", "182240.205000", "182241.695000", "182243.185000", "182244.675000", "182246.165000", "182247.655000", "182249.145000", "182250.635000", "182252.125000", "182253.615000", "182255.105000", "182256.595000", "182258.085000", "182259.575000", "182301.065000", "182302.555000", "182304.045000", "182305.535000", "182307.025000", "182308.515000", "182310.005000", "182311.495000", "182312.985000", "182314.475000", "182315.965000", "182317.455000", "182318.945000"],
      "ContentTime": ["182101.024000", "182101.027000", "182101.029000", "182101.032000", "182101.044000", "182101.046000", "182101.049000", "182101.051000", "182101.054000", "182101.056000", "182101.059000", "182101.061000", "182101.064000", "182101.066000", "182101.069000", "182101.071000", "182101.074000", "182101.076000", "182101.079000", "182101.081000", "182101.084000", "182101.086000", "182101.089000", "182101.091000", "182101.094000", "182101.096000", "182101.106000", "182101.108000", "182101.111000", "182101.113000", "182101.116000", "182101.119000", "182101.121000", "182101.123000", "182101.126000", "182101.129000", "182120.918000", "182120.921000", "182120.923000", "182120.926000", "182120.928000", "182120.931000", "182120.933000", "182120.936000", "182120.939000", "182120.941000", "182120.944000", "182120.946000", "182120.949000", "182120.952000", "182120.954000", "182120.956000", "182120.962000", "182120.965000", "182120.967000", "182120.970000", "182140.918000", "182140.922000", "182140.924000", "182140.927000", "182140.930000", "182140.932000", "182140.935000", "182140.937000", "182140.940000", "182140.942000", "182140.945000", "182140.947000", "182140.950000", "182140.952000", "182140.955000", "182140.957000", "182140.960000", "182140.962000", "182140.965000", "182140.967000", "182200.923000", "182200.925000", "182200.928000", "182200.930000", "182200.933000", "182200.935000", "182200.938000", "182200.940000", "182200.943000", "182200.945000", "182200.948000", "182200.950000", "182200.953000", "182200.955000", "182200.958000", "182200.960000", "182200.963000", "182200.965000", "182200.967000", "182200.970000", "182200.972000", "182240.971000", "182240.973000", "182240.976000", "182240.978000", "182240.981000", "182240.984000", "182240.986000", "182240.989000", "182240.991000", "182240.994000", "182240.996000", "182241.000000", "182241.002000", "182241.005000", "182241.007000", "182241.010000", "182241.012000", "182241.015000", "182241.017000", "182241.020000", "182241.023000", "182241.025000", "182241.028000", "182241.030000", "182241.033000", "182241.035000", "182241.038000", "182241.040000", "182241.043000", "182241.045000", "182241.048000", "182320.968000", "182320.971000", "182320.974000", "182320.977000", "182320.980000", "182320.983000", "182320.986000", "182320.989000", "182320.991000", "182320.994000", "182320.997000", "182321.001000", "182321.005000", "182321.007000", "182321.010000", "182321.012000", "182321.015000", "182321.017000", "182321.020000", "182321.022000", "182321.025000", "182321.027000", "182321.030000", "182321.032000", "182321.035000", "182321.037000", "182321.144000"],
      "InstanceCreationTime": ["182101.024000", "182101.027000", "182101.029000", "182101.032000", "182101.044000", "182101.046000", "182101.049000", "182101.051000", "182101.054000", "182101.056000", "182101.059000", "182101.061000", "182101.064000", "182101.066000", "182101.069000", "182101.071000", "182101.074000", "182101.076000", "182101.079000", "182101.081000", "182101.084000", "182101.086000", "182101.089000", "182101.091000", "182101.094000", "182101.096000", "182101.106000", "182101.108000", "182101.111000", "182101.113000", "182101.116000", "182101.119000", "182101.121000", "182101.123000", "182101.126000", "182101.129000", "182120.918000", "182120.921000", "182120.923000", "182120.926000", "182120.928000", "182120.931000", "182120.933000", "182120.936000", "182120.939000", "182120.941000", "182120.944000", "182120.946000", "182120.949000", "182120.952000", "182120.954000", "182120.956000", "182120.962000", "182120.965000", "182120.967000", "182120.970000", "182140.918000", "182140.922000", "182140.924000", "182140.927000", "182140.930000", "182140.932000", "182140.935000", "182140.937000", "182140.940000", "182140.942000", "182140.945000", "182140.947000", "182140.950000", "182140.952000", "182140.955000", "182140.957000", "182140.960000", "182140.962000", "182140.965000", "182140.967000", "182200.923000", "182200.925000", "182200.928000", "182200.930000", "182200.933000", "182200.935000", "182200.938000", "182200.940000", "182200.943000", "182200.945000", "182200.948000", "182200.950000", "182200.953000", "182200.955000", "182200.958000", "182200.960000", "182200.963000", "182200.965000", "182200.967000", "182200.970000", "182200.972000", "182240.971000", "182240.973000", "182240.976000", "182240.978000", "182240.981000", "182240.984000", "182240.986000", "182240.989000", "182240.991000", "182240.994000", "182240.996000", "182241.000000", "182241.002000", "182241.005000", "182241.007000", "182241.010000", "182241.012000", "182241.015000", "182241.017000", "182241.020000", "182241.023000", "182241.025000", "182241.028000", "182241.030000", "182241.033000", "182241.035000", "182241.038000", "182241.040000", "182241.043000", "182241.045000", "182241.048000", "182320.968000", "182320.971000", "182320.974000", "182320.977000", "182320.980000", "182320.983000", "182320.986000", "182320.989000", "182320.991000", "182320.994000", "182320.997000", "182321.001000", "182321.005000", "182321.007000", "182321.010000", "182321.012000", "182321.015000", "182321.017000", "182321.020000", "182321.022000", "182321.025000", "182321.027000", "182321.030000", "182321.032000", "182321.035000", "182321.037000", "182321.144000"],
      "InstanceNumber": [1, 2, 3, 4, 5, 6, 7, 8, 9, 10, 11, 12, 13, 14, 15, 16, 17, 18, 19, 20, 21, 22, 23, 24, 25, 26, 27, 28, 29, 30, 31, 32, 33, 34, 35, 36, 37, 38, 39, 40, 41, 42, 43, 44, 45, 46, 47, 48, 49, 50, 51, 52, 53, 54, 55, 56, 57, 58, 59, 60, 61, 62, 63, 64, 65, 66, 67, 68, 69, 70, 71, 72, 73, 74, 75, 76, 77, 78, 79, 80, 81, 82, 83, 84, 85, 86, 87, 88, 89, 90, 91, 92, 93, 94, 95, 96, 97, 98, 99, 100, 101, 102, 103, 104, 105, 106, 107, 108, 109, 110, 111, 112, 113, 114, 115, 116, 117, 118, 119, 120, 121, 122, 123, 124, 125, 126, 127, 128, 129, 130, 131, 132, 133, 134, 135, 136, 137, 138, 139, 140, 141, 142, 143, 144, 145, 146, 147, 148, 149, 150, 151, 152, 153, 154, 155],
      "WindowCenter": [4838.0, 4840.0, 4836.0, 4838.0, 4838.0, 4840.0, 4840.0, 4840.0, 4838.0, 4840.0, 4838.0, 4840.0, 4838.0, 4838.0, 4842.0, 4838.0, 4840.0, 4838.0, 4842.0, 4842.0, 4836.0, 4838.0, 4838.0, 4836.0, 4842.0, 4840.0, 4840.0, 4840.0, 4836.0, 4842.0, 4836.0, 4816.0, 4814.0, 4842.0, 4818.0, 4842.0, 4816.0, 4842.0, 4844.0, 4844.0, 4818.0, 4818.0, 4844.0, 4838.0, 4840.0, 4814.0, 4812.0, 4816.0, 4820.0, 4840.0, 4840.0, 4840.0, 4840.0, 4838.0, 4816.0, 4814.0, 4812.0, 4814.0, 4812.0, 4816.0, 4838.0, 4840.0, 4836.0, 4816.0, 4820.0, 4836.0, 4816.0, 4818.0, 4816.0, 4814.0, 4840.0, 4840.0, 4816.0, 4840.0, 4816.0, 4838.0, 4816.0, 4842.0, 4816.0, 4818.0, 4838.0, 4816.0, 4840.0, 4818.0, 4838.0, 4840.0, 4842.0, 4838.0, 4842.0, 4842.0, 4842.0, 4816.0, 4842.0, 4840.0, 4818.0, 4838.0, 4838.0, 4818.0, 4840.0, 4840.0, 4838.0, 4838.0, 4836.0, 4840.0, 4816.0, 4838.0, 4842.0, 4836.0, 4842.0, 4814.0, 4836.0, 4840.0, 4838.0, 4842.0, 4840.0, 4838.0, 4838.0, 4838.0, 4838.0, 4840.0, 4842.0, 4840.0, 4842.0, 4840.0, 4842.0, 4838.0, 4842.0, 4840.0, 4838.0, 4838.0, 4840.0, 4840.0, 4840.0, 4840.0, 4840.0, 4846.0, 4844.0, 4842.0, 4814.0, 4838.0, 4838.0, 4838.0, 4842.0, 4840.0, 4840.0, 4842.0, 4840.0, 4840.0, 4840.0, 4840.0, 4842.0, 4840.0, 4840.0, 4838.0, 4840.0],
      "WindowWidth": [18648.0, 18644.0, 18644.0, 18644.0, 18648.0, 18648.0, 18642.0, 18650.0, 18644.0, 18652.0, 18644.0, 18650.0, 18646.0, 18646.0, 18646.0, 18648.0, 18646.0, 18648.0, 18646.0, 18650.0, 18644.0, 18650.0, 18648.0, 18646.0, 18646.0, 18646.0, 18652.0, 18646.0, 18640.0, 18648.0, 18644.0, 18612.0, 18610.0, 18644.0, 18604.0, 18642.0, 18614.0, 18642.0, 18646.0, 18648.0, 18614.0, 18610.0, 18648.0, 18636.0, 18640.0, 18608.0, 18606.0, 18608.0, 18612.0, 18640.0, 18642.0, 18652.0, 18650.0, 18640.0, 18608.0, 18606.0, 18610.0, 18608.0, 18610.0, 18614.0, 18644.0, 18642.0, 18642.0, 18608.0, 18614.0, 18638.0, 18614.0, 18616.0, 18612.0, 18606.0, 18640.0, 18646.0, 18612.0, 18644.0, 18602.0, 18644.0, 18608.0, 18642.0, 18612.0, 18610.0, 18640.0, 18606.0, 18642.0, 18614.0, 18642.0, 18642.0, 18640.0, 18644.0, 18640.0, 18642.0, 18638.0, 18610.0, 18642.0, 18644.0, 18614.0, 18636.0, 18638.0, 18608.0, 18648.0, 18642.0, 18640.0, 18642.0, 18644.0, 18642.0, 18608.0, 18642.0, 18646.0, 18646.0, 18648.0, 18612.0, 18644.0, 18644.0, 18646.0, 18648.0, 18650.0, 18648.0, 18642.0, 18642.0, 18640.0, 18646.0, 18648.0, 18650.0, 18654.0, 18648.0, 18652.0, 18652.0, 18650.0, 18650.0, 18648.0, 18646.0, 18644.0, 18650.0, 18648.0, 18646.0, 18648.0, 18650.0, 18654.0, 18652.0, 18612.0, 18648.0, 18646.0, 18648.0, 18656.0, 18654.0, 18654.0, 18652.0, 18650.0, 18650.0, 18652.0, 18646.0, 18654.0, 18650.0, 18656.0, 18650.0, 18654.0]
    },
    "slices": {}
  }
}