{
  "AcquisitionMatrixPE": 104,
  "AcquisitionNumber": 1,
  "AcquisitionTime": "18:29:0.795000",
  "BandwidthPerPixelPhaseEncode": 17.17,
  "BaseResolution": 104,
  "BodyPartExamined": "BRAIN",
  "CoilCombinationMethod": "Sum of Squares",
  "ConsistencyInfo": "N4_VE11C_LATEST_20160120",
  "ConversionSoftware": "dcm2niix",
  "ConversionSoftwareVersion": "v1.0.20211006",
  "DerivedVendorReportedEchoSpacing": 0.000560011,
  "DeviceSerialNumber": "167006",
  "DwellTime": 2.1e-06,
  "EchoTime": 0.037,
  "EchoTime1": 0.037,
  "EchoTime2": 0.001,
  "EchoTrainLength": 104,
  "EffectiveEchoSpacing": 0.000560011,
  "FlipAngle": 52,
  "HeudiconvVersion": "0.10.0",
  "ImageComments": "Unaliased MB4/PE3/LB",
  "ImageOrientationPatientDICOM": [0.997742, 0.0661741, 0.0114708, -0.0559572, 0.913535, -0.402893],
  "ImageOrientationText": "Tra>Cor(-23.7)>Sag(2.1)",
  "ImageType": [
    "ORIGINAL",
    "PRIMARY",
    "P",
    "MB",
    "ND",
    "MOSAIC",
    "PHASE"
],
  "ImagingFrequency": 123.259,
  "InPlanePhaseEncodingDirectionDICOM": "COL",
  "InstitutionAddress": "Chemin Queen-Mary 4565,Montreal,District,CA,H3W 1W5",
  "InstitutionName": "IUGM",
  "InstitutionalDepartmentName": "Department",
  "MRAcquisitionType": "2D",
  "MagneticFieldStrength": 3,
  "Manufacturer": "Siemens",
  "ManufacturersModelName": "Prisma_fit",
  "MatrixCoilMode": "SENSE",
  "Modality": "MR",
  "MultibandAccelerationFactor": 4,
  "PartialFourier": 1,
  "PatientPosition": "HFS",
  "PercentPhaseFOV": 100,
  "PercentSampling": 100,
  "PhaseEncodingDirection": "j",
  "PhaseEncodingSteps": 104,
  "PhaseResolution": 1,
  "PixelBandwidth": 2290,
  "ProcedureStepDescription": "localizers^fLoc",
  "ProtocolName": "task_fLoc_run-2",
  "PulseSequenceDetails": "%CustomerSeq%\\cmrr_mbep2d_bold",
  "ReceiveCoilActiveElements": "HC1-7;NC1,2",
  "ReceiveCoilName": "HeadNeck_64",
  "ReconMatrixPE": 104,
  "RepetitionTime": 1.49,
  "SAR": 0.0481393,
  "ScanOptions": "FS",
  "ScanningSequence": "EP",
  "SequenceName": "epfid2d1_104",
  "SequenceVariant": "SK\\SS",
  "SeriesDescription": "task_fLoc_run-2",
  "SeriesNumber": 17,
  "ShimSetting": [618, -7175, -8840, 638, 33, 33, -100, -10],
  "SliceThickness": 2,
  "SliceTiming": [0, 0.785, 0.0975, 0.8825, 0.195, 0.98, 0.295, 1.0775, 0.3925, 1.175, 0.49, 1.275, 0.5875, 1.3725, 0.685, 0, 0.785, 0.0975, 0.8825, 0.195, 0.98, 0.295, 1.0775, 0.3925, 1.175, 0.49, 1.275, 0.5875, 1.3725, 0.685, 0, 0.785, 0.0975, 0.8825, 0.195, 0.98, 0.295, 1.0775, 0.3925, 1.175, 0.49, 1.275, 0.5875, 1.3725, 0.685, 0, 0.785, 0.0975, 0.8825, 0.195, 0.98, 0.295, 1.0775, 0.3925, 1.175, 0.49, 1.275, 0.5875, 1.3725, 0.685],
  "SoftwareVersions": "syngo MR E11",
  "SpacingBetweenSlices": 2,
  "StationName": "MRC35049",
  "TaskName": "fLoc",
  "TotalReadoutTime": 0.0576811,
  "TxRefAmp": 271.376,
  "WipMemBlock": "1da7a08a-9f1c-4301-abba-1f240d618c23||Sequence: R016 ve11c/master r/e634e98; Dec 19 2017 11:00:25 by eja",
  "dcmmeta_affine": [
    [-1.9954843521118164, -0.11191433668136597, 0.07428007572889328, 110.3791275024414],
    [-0.13234815001487732, 1.827069640159607, -0.8026833534240723, -48.77393341064453],
    [0.022941546514630318, 0.8057864308357239, 1.8303501605987549, -70.98539733886719],
    [0.0, 0.0, 0.0, 1.0]
],
  "dcmmeta_reorient_transform": [
    [0.0, -1.0, 0.0, 103.0],
    [1.0, 0.0, 0.0, 0.0],
    [0.0, 0.0, 1.0, 0.0],
    [0.0, 0.0, 0.0, 1.0]
],
  "dcmmeta_shape": [104, 104, 60, 155],
  "dcmmeta_slice_dim": 2,
  "dcmmeta_version": 0.6,
  "global": {
    "const": {
      "AcquisitionMatrix": [104, 0, 0, 104],
      "AngioFlag": "N",
      "BitsAllocated": 16,
      "BitsStored": 16,
      "BodyPartExamined": "BRAIN",
      "Columns": 832,
      "EchoNumbers": 1,
      "EchoTime": 37.0,
      "EchoTrainLength": 104,
      "FlipAngle": 52.0,
      "HighBit": 15,
      "ImageOrientationPatient": [0.99774215749419, 0.06617407741687, 0.01147077315943, -0.055957168557, 0.91353480533663, -0.4028932299328],
      "ImagePositionPatient": [-784.47142320181, -852.64230369554, 296.96615737525],
      "ImageType": [
        "ORIGINAL",
        "PRIMARY",
        "P",
        "MB",
        "ND",
        "MOSAIC"
],
      "ImagedNucleus": "1H",
      "ImagingFrequency": 123.258911,
      "InPlanePhaseEncodingDirection": "COL",
      "LargestImagePixelValue": 4095,
      "MRAcquisitionType": "2D",
      "MagneticFieldStrength": 3.0,
      "Manufacturer": "SIEMENS",
      "ManufacturerModelName": "Prisma_fit",
      "Modality": "MR",
      "NumberOfAverages": 1.0,
      "NumberOfPhaseEncodingSteps": 104,
      "PercentPhaseFieldOfView": 100.0,
      "PercentSampling": 100.0,
      "PerformedProcedureStepStartTime": "181203.121000",
      "PhotometricInterpretation": "MONOCHROME2",
      "PixelBandwidth": 2290.0,
      "PixelRepresentation": 0,
      "PixelSpacing": [2.0, 2.0],
      "ProtocolName": "task_fLoc_run-2",
      "RepetitionTime": 1490.0,
      "RescaleIntercept": -4096.0,
      "RescaleSlope": 2.0,
      "RescaleType": "US",
      "Rows": 832,
      "SAR": 0.04813929953549,
      "SamplesPerPixel": 1,
      "ScanOptions": "FS",
      "ScanningSequence": "EP",
      "SequenceName": "epfid2d1_104",
      "SequenceVariant": [
        "SK",
        "SS"
],
      "SeriesDescription": "task_fLoc_run-2",
      "SeriesNumber": 17,
      "SeriesTime": "183023.100000",
      "SliceLocation": -41.289569870344,
      "SliceThickness": 2.0,
      "SmallestImagePixelValue": 0,
      "SoftwareVersions": "syngo MR E11",
      "SpacingBetweenSlices": 1.999999994546,
      "SpecificCharacterSet": "ISO_IR 100",
      "StudyID": "1",
      "StudyTime": "181202.803000",
      "TransmitCoilName": "Body",
      "VariableFlipAngleFlag": "N",
      "WindowCenterWidthExplanation": "Algo1",
      "dBdt": 0.0},
    "slices": {}
  },
  "time": {
    "samples": {
      "AcquisitionNumber": [1, 2, 3, 4, 5, 6, 7, 8, 9, 10, 11, 12, 13, 14, 15, 16, 17, 18, 19, 20, 21, 22, 23, 24, 25, 26, 27, 28, 29, 30, 31, 32, 33, 34, 35, 36, 37, 38, 39, 40, 41, 42, 43, 44, 45, 46, 47, 48, 49, 50, 51, 52, 53, 54, 55, 56, 57, 58, 59, 60, 61, 62, 63, 64, 65, 66, 67, 68, 69, 70, 71, 72, 73, 74, 75, 76, 77, 78, 79, 80, 81, 82, 83, 84, 85, 86, 87, 88, 89, 90, 91, 92, 93, 94, 95, 96, 97, 98, 99, 100, 101, 102, 103, 104, 105, 106, 107, 108, 109, 110, 111, 112, 113, 114, 115, 116, 117, 118, 119, 120, 121, 122, 123, 124, 125, 126, 127, 128, 129, 130, 131, 132, 133, 134, 135, 136, 137, 138, 139, 140, 141, 142, 143, 144, 145, 146, 147, 148, 149, 150, 151, 152, 153, 154, 155],
      "AcquisitionTime": ["182900.795000", "182902.285000", "182903.775000", "182905.265000", "182906.755000", "182908.245000", "182909.735000", "182911.225000", "182912.715000", "182914.205000", "182915.695000", "182917.185000", "182918.675000", "182920.165000", "182921.655000", "182923.145000", "182924.635000", "182926.125000", "182927.615000", "182929.105000", "182930.595000", "182932.085000", "182933.575000", "182935.065000", "182936.555000", "182938.045000", "182939.535000", "182941.025000", "182942.515000", "182944.005000", "182945.495000", "182946.985000", "182948.475000", "182949.965000", "182951.455000", "182952.945000", "182954.435000", "182955.925000", "182957.415000", "182958.905000", "183000.395000", "183001.885000", "183003.375000", "183004.865000", "183006.355000", "183007.845000", "183009.335000", "183010.825000", "183012.315000", "183013.805000", "183015.295000", "183016.785000", "183018.275000", "183019.765000", "183021.255000", "183022.745000", "183024.235000", "183025.725000", "183027.215000", "183028.705000", "183030.195000", "183031.685000", "183033.175000", "183034.665000", "183036.155000", "183037.645000", "183039.135000", "183040.625000", "183042.115000", "183043.605000", "183045.095000", "183046.585000", "183048.075000", "183049.565000", "183051.055000", "183052.545000", "183054.035000", "183055.525000", "183057.015000", "183058.505000", "183059.995000", "183101.485000", "183102.975000", "183104.465000", "183105.955000", "183107.445000", "183108.935000", "183110.425000", "183111.915000", "183113.405000", "183114.895000", "183116.385000", "183117.875000", "183119.365000", "183120.855000", "183122.345000", "183123.835000", "183125.325000", "183126.815000", "183128.305000", "183129.795000", "183131.285000", "183132.775000", "183134.265000", "183135.755000", "183137.245000", "183138.735000", "183140.225000", "183141.715000", "183143.205000", "183144.695000", "183146.185000", "183147.675000", "183149.165000", "183150.655000", "183152.145000", "183153.635000", "183155.125000", "183156.615000", "183158.105000", "183159.595000", "183201.085000", "183202.575000", "183204.065000", "183205.555000", "183207.045000", "183208.535000", "183210.025000", "183211.515000", "183213.005000", "183214.495000", "183215.985000", "183217.475000", "183218.965000", "183220.455000", "183221.945000", "183223.435000", "183224.925000", "183226.415000", "183227.905000", "183229.395000", "183230.885000", "183232.375000", "183233.865000", "183235.355000", "183236.845000", "183238.335000", "183239.825000", "183241.315000", "183242.805000", "183244.295000", "183245.785000", "183247.275000", "183248.765000", "183250.255000"],
      "ContentTime": ["183023.102000", "183023.111000", "183023.113000", "183023.116000", "183023.118000", "183023.121000", "183023.123000", "183023.126000", "183023.128000", "183023.131000", "183023.133000", "183023.135000", "183023.138000", "183023.140000", "183023.143000", "183023.145000", "183023.148000", "183023.150000", "183023.153000", "183023.155000", "183023.158000", "183023.160000", "183023.163000", "183023.165000", "183023.168000", "183023.170000", "183023.173000", "183043.031000", "183043.034000", "183043.036000", "183043.039000", "183043.042000", "183043.044000", "183043.046000", "183043.049000", "183043.051000", "183043.054000", "183043.056000", "183043.059000", "183043.061000", "183043.064000", "183043.066000", "183043.069000", "183043.071000", "183043.074000", "183043.076000", "183043.079000", "183043.081000", "183103.030000", "183103.033000", "183103.035000", "183103.038000", "183103.040000", "183103.043000", "183103.045000", "183103.048000", "183103.050000", "183103.053000", "183103.055000", "183103.058000", "183103.061000", "183103.063000", "183103.065000", "183103.068000", "183103.070000", "183103.073000", "183103.075000", "183103.078000", "183123.029000", "183123.032000", "183123.034000", "183123.037000", "183123.042000", "183123.045000", "183123.047000", "183123.050000", "183123.053000", "183123.055000", "183123.058000", "183123.061000", "183123.065000", "183123.068000", "183123.071000", "183123.073000", "183123.076000", "183123.079000", "183123.081000", "183123.084000", "183143.033000", "183143.035000", "183143.038000", "183143.040000", "183143.043000", "183143.045000", "183143.048000", "183143.051000", "183143.053000", "183143.055000", "183143.058000", "183143.060000", "183143.063000", "183143.065000", "183143.068000", "183143.070000", "183143.073000", "183143.075000", "183143.084000", "183143.087000", "183223.059000", "183223.062000", "183223.064000", "183223.067000", "183223.070000", "183223.072000", "183223.075000", "183223.077000", "183223.080000", "183223.082000", "183223.085000", "183223.087000", "183223.090000", "183223.092000", "183223.095000", "183223.097000", "183223.100000", "183223.109000", "183223.112000", "183223.114000", "183223.117000", "183223.119000", "183223.122000", "183223.124000", "183223.127000", "183223.129000", "183223.132000", "183252.073000", "183252.076000", "183252.078000", "183252.081000", "183252.083000", "183252.092000", "183252.094000", "183252.096000", "183252.099000", "183252.102000", "183252.104000", "183252.107000", "183252.109000", "183252.112000", "183252.114000", "183252.116000", "183252.119000", "183252.122000", "183252.124000", "183252.127000"],
      "InstanceCreationTime": ["183023.102000", "183023.111000", "183023.113000", "183023.116000", "183023.118000", "183023.121000", "183023.123000", "183023.126000", "183023.128000", "183023.131000", "183023.133000", "183023.135000", "183023.138000", "183023.140000", "183023.143000", "183023.145000", "183023.148000", "183023.150000", "183023.153000", "183023.155000", "183023.158000", "183023.160000", "183023.163000", "183023.165000", "183023.168000", "183023.170000", "183023.173000", "183043.031000", "183043.034000", "183043.036000", "183043.039000", "183043.042000", "183043.044000", "183043.046000", "183043.049000", "183043.051000", "183043.054000", "183043.056000", "183043.059000", "183043.061000", "183043.064000", "183043.066000", "183043.069000", "183043.071000", "183043.074000", "183043.076000", "183043.079000", "183043.081000", "183103.030000", "183103.033000", "183103.035000", "183103.038000", "183103.040000", "183103.043000", "183103.045000", "183103.048000", "183103.050000", "183103.053000", "183103.055000", "183103.058000", "183103.061000", "183103.063000", "183103.065000", "183103.068000", "183103.070000", "183103.073000", "183103.075000", "183103.078000", "183123.029000", "183123.032000", "183123.034000", "183123.037000", "183123.042000", "183123.045000", "183123.047000", "183123.050000", "183123.053000", "183123.055000", "183123.058000", "183123.061000", "183123.065000", "183123.068000", "183123.071000", "183123.073000", "183123.076000", "183123.079000", "183123.081000", "183123.084000", "183143.033000", "183143.035000", "183143.038000", "183143.040000", "183143.043000", "183143.045000", "183143.048000", "183143.051000", "183143.053000", "183143.055000", "183143.058000", "183143.060000", "183143.063000", "183143.065000", "183143.068000", "183143.070000", "183143.073000", "183143.075000", "183143.084000", "183143.087000", "183223.059000", "183223.062000", "183223.064000", "183223.067000", "183223.070000", "183223.072000", "183223.075000", "183223.077000", "183223.080000", "183223.082000", "183223.085000", "183223.087000", "183223.090000", "183223.092000", "183223.095000", "183223.097000", "183223.100000", "183223.109000", "183223.112000", "183223.114000", "183223.117000", "183223.119000", "183223.122000", "183223.124000", "183223.127000", "183223.129000", "183223.132000", "183252.073000", "183252.076000", "183252.078000", "183252.081000", "183252.083000", "183252.092000", "183252.094000", "183252.096000", "183252.099000", "183252.102000", "183252.104000", "183252.107000", "183252.109000", "183252.112000", "183252.114000", "183252.116000", "183252.119000", "183252.122000", "183252.124000", "183252.127000"],
      "InstanceNumber": [1, 2, 3, 4, 5, 6, 7, 8, 9, 10, 11, 12, 13, 14, 15, 16, 17, 18, 19, 20, 21, 22, 23, 24, 25, 26, 27, 28, 29, 30, 31, 32, 33, 34, 35, 36, 37, 38, 39, 40, 41, 42, 43, 44, 45, 46, 47, 48, 49, 50, 51, 52, 53, 54, 55, 56, 57, 58, 59, 60, 61, 62, 63, 64, 65, 66, 67, 68, 69, 70, 71, 72, 73, 74, 75, 76, 77, 78, 79, 80, 81, 82, 83, 84, 85, 86, 87, 88, 89, 90, 91, 92, 93, 94, 95, 96, 97, 98, 99, 100, 101, 102, 103, 104, 105, 106, 107, 108, 109, 110, 111, 112, 113, 114, 115, 116, 117, 118, 119, 120, 121, 122, 123, 124, 125, 126, 127, 128, 129, 130, 131, 132, 133, 134, 135, 136, 137, 138, 139, 140, 141, 142, 143, 144, 145, 146, 147, 148, 149, 150, 151, 152, 153, 154, 155],
      "WindowCenter": [4802.0, 4772.0, 4772.0, 4830.0, 4836.0, 4832.0, 4830.0, 4806.0, 4802.0, 4778.0, 4798.0, 4804.0, 4810.0, 4808.0, 4832.0, 4802.0, 4798.0, 4804.0, 4806.0, 4808.0, 4806.0, 4804.0, 4806.0, 4804.0, 4776.0, 4774.0, 4772.0, 4798.0, 4798.0, 4798.0, 4836.0, 4868.0, 4874.0, 4870.0, 4836.0, 4774.0, 4774.0, 4774.0, 4772.0, 4800.0, 4802.0, 4834.0, 4838.0, 4836.0, 4808.0, 4832.0, 4806.0, 4800.0, 4776.0, 4798.0, 4802.0, 4800.0, 4804.0, 4800.0, 4804.0, 4808.0, 4802.0, 4802.0, 4774.0, 4776.0, 4768.0, 4768.0, 4766.0, 4772.0, 4770.0, 4766.0, 4768.0, 4768.0, 4742.0, 4768.0, 4768.0, 4774.0, 4770.0, 4766.0, 4772.0, 4772.0, 4770.0, 4770.0, 4770.0, 4770.0, 4770.0, 4766.0, 4770.0, 4774.0, 4770.0, 4768.0, 4770.0, 4770.0, 4768.0, 4772.0, 4768.0, 4768.0, 4770.0, 4770.0, 4770.0, 4770.0, 4772.0, 4772.0, 4772.0, 4768.0, 4768.0, 4772.0, 4768.0, 4770.0, 4770.0, 4770.0, 4746.0, 4748.0, 4770.0, 4774.0, 4798.0, 4798.0, 4770.0, 4768.0, 4770.0, 4772.0, 4768.0, 4770.0, 4770.0, 4772.0, 4772.0, 4772.0, 4768.0, 4770.0, 4772.0, 4772.0, 4772.0, 4768.0, 4772.0, 4770.0, 4770.0, 4768.0, 4770.0, 4772.0, 4774.0, 4772.0, 4768.0, 4774.0, 4770.0, 4770.0, 4770.0, 4770.0, 4770.0, 4770.0, 4772.0, 4770.0, 4772.0, 4770.0, 4774.0, 4772.0, 4768.0, 4766.0, 4768.0, 4770.0, 4770.0],
      "WindowWidth": [18602.0, 18560.0, 18568.0, 18638.0, 18648.0, 18648.0, 18642.0, 18608.0, 18602.0, 18564.0, 18594.0, 18604.0, 18608.0, 18610.0, 18640.0, 18598.0, 18598.0, 18602.0, 18606.0, 18606.0, 18608.0, 18598.0, 18604.0, 18602.0, 18566.0, 18562.0, 18562.0, 18594.0, 18596.0, 18598.0, 18646.0, 18690.0, 18696.0, 18688.0, 18640.0, 18568.0, 18562.0, 18558.0, 18554.0, 18588.0, 18598.0, 18644.0, 18650.0, 18646.0, 18612.0, 18642.0, 18602.0, 18590.0, 18560.0, 18590.0, 18594.0, 18598.0, 18600.0, 18602.0, 18598.0, 18604.0, 18602.0, 18594.0, 18562.0, 18566.0, 18568.0, 18568.0, 18566.0, 18566.0, 18568.0, 18562.0, 18566.0, 18566.0, 18528.0, 18564.0, 18564.0, 18564.0, 18562.0, 18562.0, 18564.0, 18568.0, 18562.0, 18566.0, 18560.0, 18562.0, 18566.0, 18560.0, 18562.0, 18564.0, 18560.0, 18564.0, 18564.0, 18562.0, 18558.0, 18562.0, 18558.0, 18562.0, 18560.0, 18560.0, 18556.0, 18562.0, 18566.0, 18562.0, 18564.0, 18556.0, 18564.0, 18564.0, 18562.0, 18564.0, 18560.0, 18564.0, 18532.0, 18530.0, 18558.0, 18568.0, 18604.0, 18604.0, 18566.0, 18562.0, 18562.0, 18560.0, 18558.0, 18562.0, 18560.0, 18568.0, 18564.0, 18562.0, 18564.0, 18560.0, 18562.0, 18566.0, 18560.0, 18564.0, 18566.0, 18560.0, 18560.0, 18560.0, 18558.0, 18560.0, 18566.0, 18562.0, 18558.0, 18568.0, 18562.0, 18560.0, 18562.0, 18562.0, 18564.0, 18562.0, 18560.0, 18568.0, 18562.0, 18560.0, 18562.0, 18562.0, 18560.0, 18560.0, 18558.0, 18560.0, 18560.0]
    },
    "slices": {}
  }
}