{
  "AcquisitionMatrixPE": 104,
  "AcquisitionNumber": 1,
  "AcquisitionTime": "18:20:24.407500",
  "BandwidthPerPixelPhaseEncode": 17.17,
  "BaseResolution": 104,
  "BodyPartExamined": "BRAIN",
  "CoilCombinationMethod": "Sum of Squares",
  "ConsistencyInfo": "N4_VE11C_LATEST_20160120",
  "ConversionSoftware": "dcm2niix",
  "ConversionSoftwareVersion": "v1.0.20211006",
  "DerivedVendorReportedEchoSpacing": 0.000560011,
  "DeviceSerialNumber": "167006",
  "DwellTime": 2.1e-06,
  "EchoTime": 0.037,
  "EchoTrainLength": 104,
  "EffectiveEchoSpacing": 0.000560011,
  "FlipAngle": 52,
  "HeudiconvVersion": "0.10.0",
  "ImageComments": "Unaliased MB4/PE3/LB",
  "ImageOrientationPatientDICOM": [0.997742, 0.0661741, 0.0114708, -0.0559572, 0.913535, -0.402893],
  "ImageOrientationText": "Tra>Cor(-23.7)>Sag(2.1)",
  "ImageType": [
    "ORIGINAL",
    "PRIMARY",
    "M",
    "MB",
    "ND",
    "MOSAIC"
],
  "ImagingFrequency": 123.259,
  "InPlanePhaseEncodingDirectionDICOM": "COL",
  "InstitutionAddress": "Chemin Queen-Mary 4565,Montreal,District,CA,H3W 1W5",
  "InstitutionName": "IUGM",
  "InstitutionalDepartmentName": "Department",
  "MRAcquisitionType": "2D",
  "MagneticFieldStrength": 3,
  "Manufacturer": "Siemens",
  "ManufacturersModelName": "Prisma_fit",
  "MatrixCoilMode": "SENSE",
  "Modality": "MR",
  "MultibandAccelerationFactor": 4,
  "PartialFourier": 1,
  "PatientPosition": "HFS",
  "PercentPhaseFOV": 100,
  "PercentSampling": 100,
  "PhaseEncodingDirection": "j",
  "PhaseEncodingSteps": 104,
  "PhaseResolution": 1,
  "PixelBandwidth": 2290,
  "ProcedureStepDescription": "localizers^fLoc",
  "ProtocolName": "task_fLoc_run-1",
  "PulseSequenceDetails": "%CustomerSeq%\\cmrr_mbep2d_bold",
  "ReceiveCoilActiveElements": "HC1-7;NC1,2",
  "ReceiveCoilName": "HeadNeck_64",
  "ReconMatrixPE": 104,
  "RepetitionTime": 1.49,
  "SAR": 0.0481393,
  "ScanOptions": "FS",
  "ScanningSequence": "EP",
  "SequenceName": "epfid2d1_104",
  "SequenceVariant": "SK\\SS",
  "SeriesDescription": "task_fLoc_run-1",
  "SeriesNumber": 10,
  "ShimSetting": [618, -7175, -8840, 638, 33, 33, -100, -10],
  "SliceThickness": 2,
  "SliceTiming": [0, 0.7825, 0.0975, 0.8825, 0.195, 0.98, 0.2925, 1.0775, 0.3925, 1.175, 0.49, 1.2725, 0.5875, 1.3725, 0.685, 0, 0.7825, 0.0975, 0.8825, 0.195, 0.98, 0.2925, 1.0775, 0.3925, 1.175, 0.49, 1.2725, 0.5875, 1.3725, 0.685, 0, 0.7825, 0.0975, 0.8825, 0.195, 0.98, 0.2925, 1.0775, 0.3925, 1.175, 0.49, 1.2725, 0.5875, 1.3725, 0.685, 0, 0.7825, 0.0975, 0.8825, 0.195, 0.98, 0.2925, 1.0775, 0.3925, 1.175, 0.49, 1.2725, 0.5875, 1.3725, 0.685],
  "SoftwareVersions": "syngo MR E11",
  "SpacingBetweenSlices": 2,
  "StationName": "MRC35049",
  "TaskName": "fLoc",
  "TotalReadoutTime": 0.0576811,
  "TxRefAmp": 271.376,
  "WipMemBlock": "0e25419a-9071-4d00-9241-9bb6d64ed7ca||Sequence: R016 ve11c/master r/e634e98; Dec 19 2017 11:00:25 by eja",
  "dcmmeta_affine": [
    [-1.9954843521118164, -0.11191433668136597, 0.07428007572889328, 110.3791275024414],
    [-0.13234815001487732, 1.827069640159607, -0.8026833534240723, -48.77393341064453],
    [0.022941546514630318, 0.8057864308357239, 1.8303501605987549, -70.98539733886719],
    [0.0, 0.0, 0.0, 1.0]
],
  "dcmmeta_reorient_transform": [
    [0.0, -1.0, 0.0, 103.0],
    [1.0, 0.0, 0.0, 0.0],
    [0.0, 0.0, 1.0, 0.0],
    [0.0, 0.0, 0.0, 1.0]
],
  "dcmmeta_shape": [104, 104, 60, 155],
  "dcmmeta_slice_dim": 2,
  "dcmmeta_version": 0.6,
  "global": {
    "const": {
      "AcquisitionMatrix": [104, 0, 0, 104],
      "AngioFlag": "N",
      "BitsAllocated": 16,
      "BitsStored": 16,
      "BodyPartExamined": "BRAIN",
      "Columns": 832,
      "EchoNumbers": 1,
      "EchoTime": 37.0,
      "EchoTrainLength": 104,
      "FlipAngle": 52.0,
      "HighBit": 15,
      "ImageOrientationPatient": [0.99774215749419, 0.06617407741687, 0.01147077315943, -0.055957168557, 0.91353480533663, -0.4028932299328],
      "ImagePositionPatient": [-784.47142320181, -852.64230369554, 296.96615737525],
      "ImageType": [
        "ORIGINAL",
        "PRIMARY",
        "M",
        "MB",
        "ND",
        "MOSAIC"
],
      "ImagedNucleus": "1H",
      "ImagingFrequency": 123.258909,
      "InPlanePhaseEncodingDirection": "COL",
      "MRAcquisitionType": "2D",
      "MagneticFieldStrength": 3.0,
      "Manufacturer": "SIEMENS",
      "ManufacturerModelName": "Prisma_fit",
      "Modality": "MR",
      "NumberOfAverages": 1.0,
      "NumberOfPhaseEncodingSteps": 104,
      "PercentPhaseFieldOfView": 100.0,
      "PercentSampling": 100.0,
      "PerformedProcedureStepStartTime": "181203.121000",
      "PhotometricInterpretation": "MONOCHROME2",
      "PixelBandwidth": 2290.0,
      "PixelRepresentation": 0,
      "PixelSpacing": [2.0, 2.0],
      "ProtocolName": "task_fLoc_run-1",
      "RepetitionTime": 1490.0,
      "Rows": 832,
      "SAR": 0.04813929953549,
      "SamplesPerPixel": 1,
      "ScanOptions": "FS",
      "ScanningSequence": "EP",
      "SequenceName": "epfid2d1_104",
      "SequenceVariant": [
        "SK",
        "SS"
],
      "SeriesDescription": "task_fLoc_run-1",
      "SeriesNumber": 10,
      "SeriesTime": "182125.705000",
      "SliceLocation": -41.289569870344,
      "SliceThickness": 2.0,
      "SmallestImagePixelValue": 0,
      "SoftwareVersions": "syngo MR E11",
      "SpacingBetweenSlices": 1.999999994546,
      "SpecificCharacterSet": "ISO_IR 100",
      "StudyID": "1",
      "StudyTime": "181202.803000",
      "TransmitCoilName": "Body",
      "VariableFlipAngleFlag": "N",
      "WindowCenterWidthExplanation": "Algo1",
      "dBdt": 0.0},
    "slices": {}
  },
  "time": {
    "samples": {
      "AcquisitionNumber": [1, 2, 3, 4, 5, 6, 7, 8, 9, 10, 11, 12, 13, 14, 15, 16, 17, 18, 19, 20, 21, 22, 23, 24, 25, 26, 27, 28, 29, 30, 31, 32, 33, 34, 35, 36, 37, 38, 39, 40, 41, 42, 43, 44, 45, 46, 47, 48, 49, 50, 51, 52, 53, 54, 55, 56, 57, 58, 59, 60, 61, 62, 63, 64, 65, 66, 67, 68, 69, 70, 71, 72, 73, 74, 75, 76, 77, 78, 79, 80, 81, 82, 83, 84, 85, 86, 87, 88, 89, 90, 91, 92, 93, 94, 95, 96, 97, 98, 99, 100, 101, 102, 103, 104, 105, 106, 107, 108, 109, 110, 111, 112, 113, 114, 115, 116, 117, 118, 119, 120, 121, 122, 123, 124, 125, 126, 127, 128, 129, 130, 131, 132, 133, 134, 135, 136, 137, 138, 139, 140, 141, 142, 143, 144, 145, 146, 147, 148, 149, 150, 151, 152, 153, 154, 155],
      "AcquisitionTime": ["182024.407500", "182025.897500", "182027.387500", "182028.877500", "182030.367500", "182031.857500", "182033.347500", "182034.837500", "182036.327500", "182037.817500", "182039.307500", "182040.797500", "182042.287500", "182043.777500", "182045.267500", "182046.757500", "182048.247500", "182049.737500", "182051.227500", "182052.717500", "182054.207500", "182055.697500", "182057.187500", "182058.677500", "182100.167500", "182101.657500", "182103.147500", "182104.637500", "182106.127500", "182107.617500", "182109.107500", "182110.597500", "182112.087500", "182113.577500", "182115.067500", "182116.557500", "182118.047500", "182119.537500", "182121.027500", "182122.517500", "182124.007500", "182125.497500", "182126.987500", "182128.477500", "182129.967500", "182131.457500", "182132.947500", "182134.437500", "182135.927500", "182137.417500", "182138.907500", "182140.397500", "182141.887500", "182143.377500", "182144.867500", "182146.357500", "182147.847500", "182149.337500", "182150.827500", "182152.317500", "182153.807500", "182155.297500", "182156.787500", "182158.277500", "182159.767500", "182201.257500", "182202.747500", "182204.237500", "182205.727500", "182207.217500", "182208.707500", "182210.197500", "182211.687500", "182213.177500", "182214.667500", "182216.157500", "182217.647500", "182219.137500", "182220.627500", "182222.117500", "182223.607500", "182225.097500", "182226.587500", "182228.077500", "182229.567500", "182231.057500", "182232.547500", "182234.037500", "182235.527500", "182237.017500", "182238.507500", "182239.997500", "182241.487500", "182242.977500", "182244.467500", "182245.957500", "182247.447500", "182248.937500", "182250.427500", "182251.917500", "182253.407500", "182254.897500", "182256.387500", "182257.877500", "182259.367500", "182300.857500", "182302.347500", "182303.837500", "182305.327500", "182306.817500", "182308.307500", "182309.797500", "182311.287500", "182312.777500", "182314.267500", "182315.757500", "182317.247500", "182318.737500", "182320.227500", "182321.717500", "182323.207500", "182324.697500", "182326.187500", "182327.677500", "182329.167500", "182330.657500", "182332.147500", "182333.637500", "182335.127500", "182336.617500", "182338.107500", "182339.597500", "182341.087500", "182342.577500", "182344.067500", "182345.557500", "182347.047500", "182348.537500", "182350.027500", "182351.517500", "182353.007500", "182354.497500", "182355.987500", "182357.477500", "182358.967500", "182400.457500", "182401.947500", "182403.437500", "182404.927500", "182406.417500", "182407.907500", "182409.397500", "182410.887500", "182412.377500", "182413.867500"],
      "ContentTime": ["182125.708000", "182125.712000", "182125.715000", "182125.719000", "182145.668000", "182145.672000", "182145.675000", "182145.678000", "182145.682000", "182145.685000", "182145.688000", "182145.691000", "182145.695000", "182145.698000", "182145.701000", "182145.705000", "182145.708000", "182145.711000", "182145.715000", "182145.718000", "182145.722000", "182145.725000", "182145.728000", "182145.732000", "182145.735000", "182205.667000", "182205.671000", "182205.674000", "182205.677000", "182205.680000", "182205.684000", "182205.687000", "182205.690000", "182205.694000", "182205.697000", "182205.700000", "182205.704000", "182205.707000", "182205.710000", "182205.714000", "182205.717000", "182205.720000", "182205.724000", "182205.732000", "182205.736000", "182225.667000", "182225.671000", "182225.674000", "182225.677000", "182225.681000", "182225.685000", "182225.688000", "182225.691000", "182225.695000", "182225.698000", "182225.701000", "182225.705000", "182225.708000", "182225.711000", "182225.714000", "182225.718000", "182225.721000", "182225.724000", "182225.727000", "182225.731000", "182245.668000", "182245.672000", "182245.675000", "182245.678000", "182245.682000", "182245.685000", "182245.689000", "182245.692000", "182245.695000", "182245.704000", "182245.707000", "182245.710000", "182245.714000", "182245.717000", "182245.720000", "182245.724000", "182245.727000", "182245.730000", "182245.734000", "182245.737000", "182245.740000", "182305.668000", "182305.672000", "182305.675000", "182305.678000", "182305.682000", "182305.685000", "182305.688000", "182305.692000", "182305.695000", "182305.698000", "182305.701000", "182305.705000", "182305.708000", "182305.711000", "182305.714000", "182305.718000", "182305.721000", "182305.724000", "182305.727000", "182305.731000", "182345.668000", "182345.672000", "182345.675000", "182345.678000", "182345.682000", "182345.685000", "182345.695000", "182345.699000", "182345.702000", "182345.705000", "182345.708000", "182345.712000", "182345.715000", "182345.718000", "182345.722000", "182345.730000", "182345.733000", "182345.736000", "182345.740000", "182345.743000", "182345.746000", "182345.750000", "182345.753000", "182345.756000", "182345.760000", "182345.763000", "182345.766000", "182345.770000", "182416.136000", "182416.139000", "182416.143000", "182416.146000", "182416.149000", "182416.153000", "182416.156000", "182416.159000", "182416.163000", "182416.166000", "182416.169000", "182416.172000", "182416.176000", "182416.179000", "182416.182000", "182416.186000", "182416.189000", "182416.192000", "182416.195000", "182416.199000", "182416.202000"],
      "InstanceCreationTime": ["182125.708000", "182125.712000", "182125.715000", "182125.719000", "182145.668000", "182145.672000", "182145.675000", "182145.678000", "182145.682000", "182145.685000", "182145.688000", "182145.691000", "182145.695000", "182145.698000", "182145.701000", "182145.705000", "182145.708000", "182145.711000", "182145.715000", "182145.718000", "182145.722000", "182145.725000", "182145.728000", "182145.732000", "182145.735000", "182205.667000", "182205.671000", "182205.674000", "182205.677000", "182205.680000", "182205.684000", "182205.687000", "182205.690000", "182205.694000", "182205.697000", "182205.700000", "182205.704000", "182205.707000", "182205.710000", "182205.714000", "182205.717000", "182205.720000", "182205.724000", "182205.732000", "182205.736000", "182225.667000", "182225.671000", "182225.674000", "182225.677000", "182225.681000", "182225.685000", "182225.688000", "182225.691000", "182225.695000", "182225.698000", "182225.701000", "182225.705000", "182225.708000", "182225.711000", "182225.714000", "182225.718000", "182225.721000", "182225.724000", "182225.727000", "182225.731000", "182245.668000", "182245.672000", "182245.675000", "182245.678000", "182245.682000", "182245.685000", "182245.689000", "182245.692000", "182245.695000", "182245.704000", "182245.707000", "182245.710000", "182245.714000", "182245.717000", "182245.720000", "182245.724000", "182245.727000", "182245.730000", "182245.734000", "182245.737000", "182245.740000", "182305.668000", "182305.672000", "182305.675000", "182305.678000", "182305.682000", "182305.685000", "182305.688000", "182305.692000", "182305.695000", "182305.698000", "182305.701000", "182305.705000", "182305.708000", "182305.711000", "182305.714000", "182305.718000", "182305.721000", "182305.724000", "182305.727000", "182305.731000", "182345.668000", "182345.672000", "182345.675000", "182345.678000", "182345.682000", "182345.685000", "182345.695000", "182345.699000", "182345.702000", "182345.705000", "182345.708000", "182345.712000", "182345.715000", "182345.718000", "182345.722000", "182345.730000", "182345.733000", "182345.736000", "182345.740000", "182345.743000", "182345.746000", "182345.750000", "182345.753000", "182345.756000", "182345.760000", "182345.763000", "182345.766000", "182345.770000", "182416.136000", "182416.139000", "182416.143000", "182416.146000", "182416.149000", "182416.153000", "182416.156000", "182416.159000", "182416.163000", "182416.166000", "182416.169000", "182416.172000", "182416.176000", "182416.179000", "182416.182000", "182416.186000", "182416.189000", "182416.192000", "182416.195000", "182416.199000", "182416.202000"],
      "InstanceNumber": [1, 2, 3, 4, 5, 6, 7, 8, 9, 10, 11, 12, 13, 14, 15, 16, 17, 18, 19, 20, 21, 22, 23, 24, 25, 26, 27, 28, 29, 30, 31, 32, 33, 34, 35, 36, 37, 38, 39, 40, 41, 42, 43, 44, 45, 46, 47, 48, 49, 50, 51, 52, 53, 54, 55, 56, 57, 58, 59, 60, 61, 62, 63, 64, 65, 66, 67, 68, 69, 70, 71, 72, 73, 74, 75, 76, 77, 78, 79, 80, 81, 82, 83, 84, 85, 86, 87, 88, 89, 90, 91, 92, 93, 94, 95, 96, 97, 98, 99, 100, 101, 102, 103, 104, 105, 106, 107, 108, 109, 110, 111, 112, 113, 114, 115, 116, 117, 118, 119, 120, 121, 122, 123, 124, 125, 126, 127, 128, 129, 130, 131, 132, 133, 134, 135, 136, 137, 138, 139, 140, 141, 142, 143, 144, 145, 146, 147, 148, 149, 150, 151, 152, 153, 154, 155],
      "LargestImagePixelValue": [49146, 47152, 47114, 45470, 46223, 45660, 45821, 47354, 45741, 46188, 45699, 46799, 45942, 46127, 45274, 46437, 46828, 45877, 46814, 46512, 46430, 46174, 45790, 45488, 46911, 46227, 46175, 46829, 46308, 46681, 45714, 46396, 46806, 45817, 46750, 45695, 46320, 46227, 46363, 46595, 46220, 46330, 45910, 46451, 47114, 46140, 46364, 45330, 46200, 46245, 46139, 46393, 45410, 46228, 45840, 46279, 45791, 46486, 45805, 46758, 46034, 46458, 45963, 46991, 46188, 46452, 46054, 46399, 46553, 46812, 46671, 45820, 46498, 45936, 47017, 46428, 46483, 46380, 45950, 45687, 46935, 46221, 43670, 46037, 46920, 46428, 46138, 45647, 45643, 46231, 45881, 45942, 47196, 46140, 45349, 45499, 47129, 46098, 45157, 44339, 45262, 45552, 45334, 45092, 46131, 46286, 46022, 46137, 46484, 45613, 46512, 46465, 45464, 46341, 45995, 45106, 44751, 44332, 45552, 45806, 46906, 45850, 46120, 46551, 45580, 46539, 44990, 45483, 45150, 46021, 45076, 45588, 44933, 46245, 44938, 44642, 45655, 45401, 45395, 45174, 45514, 44719, 45311, 44127, 44600, 44391, 44237, 44263, 45006, 45657, 45011, 44591, 45155, 45352, 45784],
      "WindowCenter": [10622.0, 10563.0, 10551.0, 10569.0, 10594.0, 10564.0, 10529.0, 10522.0, 10512.0, 10543.0, 10541.0, 10541.0, 10522.0, 10518.0, 10524.0, 10543.0, 10535.0, 10524.0, 10530.0, 10533.0, 10532.0, 10534.0, 10540.0, 10525.0, 10523.0, 10512.0, 10524.0, 10564.0, 10556.0, 10546.0, 10540.0, 10536.0, 10532.0, 10503.0, 10525.0, 10536.0, 10552.0, 10548.0, 10551.0, 10543.0, 10533.0, 10539.0, 10554.0, 10559.0, 10542.0, 10518.0, 10513.0, 10526.0, 10543.0, 10550.0, 10542.0, 10535.0, 10533.0, 10537.0, 10523.0, 10517.0, 10519.0, 10550.0, 10548.0, 10549.0, 10530.0, 10534.0, 10534.0, 10539.0, 10542.0, 10543.0, 10529.0, 10536.0, 10543.0, 10549.0, 10550.0, 10533.0, 10553.0, 10556.0, 10548.0, 10540.0, 10542.0, 10542.0, 10562.0, 10575.0, 10587.0, 10569.0, 10539.0, 10559.0, 10555.0, 10531.0, 10514.0, 10512.0, 10538.0, 10566.0, 10560.0, 10550.0, 10543.0, 10529.0, 10548.0, 10561.0, 10564.0, 10539.0, 10514.0, 10522.0, 10539.0, 10526.0, 10508.0, 10508.0, 10529.0, 10524.0, 10511.0, 10511.0, 10519.0, 10521.0, 10529.0, 10522.0, 10525.0, 10552.0, 10550.0, 10554.0, 10560.0, 10552.0, 10528.0, 10507.0, 10503.0, 10499.0, 10536.0, 10556.0, 10545.0, 10531.0, 10494.0, 10497.0, 10508.0, 10530.0, 10540.0, 10540.0, 10539.0, 10549.0, 10522.0, 10524.0, 10542.0, 10546.0, 10545.0, 10545.0, 10546.0, 10532.0, 10546.0, 10529.0, 10540.0, 10559.0, 10554.0, 10565.0, 10568.0, 10565.0, 10560.0, 10549.0, 10543.0, 10525.0, 10519.0],
      "WindowWidth": [22585.0, 22436.0, 22399.0, 22447.0, 22500.0, 22427.0, 22341.0, 22315.0, 22299.0, 22375.0, 22370.0, 22365.0, 22324.0, 22312.0, 22334.0, 22372.0, 22350.0, 22336.0, 22339.0, 22348.0, 22343.0, 22352.0, 22369.0, 22334.0, 22322.0, 22300.0, 22328.0, 22422.0, 22407.0, 22379.0, 22370.0, 22357.0, 22344.0, 22281.0, 22328.0, 22363.0, 22397.0, 22387.0, 22391.0, 22369.0, 22345.0, 22362.0, 22404.0, 22411.0, 22367.0, 22312.0, 22300.0, 22337.0, 22374.0, 22389.0, 22367.0, 22353.0, 22358.0, 22365.0, 22333.0, 22313.0, 22322.0, 22400.0, 22390.0, 22382.0, 22343.0, 22351.0, 22352.0, 22359.0, 22369.0, 22369.0, 22340.0, 22355.0, 22371.0, 22383.0, 22385.0, 22349.0, 22396.0, 22408.0, 22378.0, 22362.0, 22370.0, 22370.0, 22418.0, 22451.0, 22474.0, 22433.0, 22378.0, 22412.0, 22399.0, 22340.0, 22302.0, 22296.0, 22361.0, 22428.0, 22413.0, 22389.0, 22367.0, 22338.0, 22385.0, 22415.0, 22418.0, 22358.0, 22305.0, 22327.0, 22368.0, 22331.0, 22286.0, 22290.0, 22337.0, 22330.0, 22292.0, 22295.0, 22313.0, 22319.0, 22338.0, 22321.0, 22330.0, 22388.0, 22387.0, 22399.0, 22415.0, 22401.0, 22335.0, 22284.0, 22267.0, 22262.0, 22351.0, 22395.0, 22368.0, 22332.0, 22251.0, 22262.0, 22289.0, 22341.0, 22369.0, 22366.0, 22359.0, 22377.0, 22315.0, 22322.0, 22357.0, 22373.0, 22369.0, 22370.0, 22373.0, 22341.0, 22377.0, 22338.0, 22363.0, 22413.0, 22397.0, 22426.0, 22425.0, 22416.0, 22408.0, 22391.0, 22370.0, 22328.0, 22309.0]
    },
    "slices": {}
  }
}