{
  "AcquisitionMatrixPE": 104,
  "AcquisitionNumber": 1,
  "AcquisitionTime": "18:29:0.795000",
  "BandwidthPerPixelPhaseEncode": 17.17,
  "BaseResolution": 104,
  "BodyPartExamined": "BRAIN",
  "CoilCombinationMethod": "Sum of Squares",
  "ConsistencyInfo": "N4_VE11C_LATEST_20160120",
  "ConversionSoftware": "dcm2niix",
  "ConversionSoftwareVersion": "v1.0.20211006",
  "DerivedVendorReportedEchoSpacing": 0.000560011,
  "DeviceSerialNumber": "167006",
  "DwellTime": 2.1e-06,
  "EchoTime": 0.037,
  "EchoTrainLength": 104,
  "EffectiveEchoSpacing": 0.000560011,
  "FlipAngle": 52,
  "HeudiconvVersion": "0.10.0",
  "ImageComments": "Unaliased MB4/PE3/LB",
  "ImageOrientationPatientDICOM": [0.997742, 0.0661741, 0.0114708, -0.0559572, 0.913535, -0.402893],
  "ImageOrientationText": "Tra>Cor(-23.7)>Sag(2.1)",
  "ImageType": [
    "ORIGINAL",
    "PRIMARY",
    "M",
    "MB",
    "ND",
    "MOSAIC"
],
  "ImagingFrequency": 123.259,
  "InPlanePhaseEncodingDirectionDICOM": "COL",
  "InstitutionAddress": "Chemin Queen-Mary 4565,Montreal,District,CA,H3W 1W5",
  "InstitutionName": "IUGM",
  "InstitutionalDepartmentName": "Department",
  "MRAcquisitionType": "2D",
  "MagneticFieldStrength": 3,
  "Manufacturer": "Siemens",
  "ManufacturersModelName": "Prisma_fit",
  "MatrixCoilMode": "SENSE",
  "Modality": "MR",
  "MultibandAccelerationFactor": 4,
  "PartialFourier": 1,
  "PatientPosition": "HFS",
  "PercentPhaseFOV": 100,
  "PercentSampling": 100,
  "PhaseEncodingDirection": "j",
  "PhaseEncodingSteps": 104,
  "PhaseResolution": 1,
  "PixelBandwidth": 2290,
  "ProcedureStepDescription": "localizers^fLoc",
  "ProtocolName": "task_fLoc_run-2",
  "PulseSequenceDetails": "%CustomerSeq%\\cmrr_mbep2d_bold",
  "ReceiveCoilActiveElements": "HC1-7;NC1,2",
  "ReceiveCoilName": "HeadNeck_64",
  "ReconMatrixPE": 104,
  "RepetitionTime": 1.49,
  "SAR": 0.0481393,
  "ScanOptions": "FS",
  "ScanningSequence": "EP",
  "SequenceName": "epfid2d1_104",
  "SequenceVariant": "SK\\SS",
  "SeriesDescription": "task_fLoc_run-2",
  "SeriesNumber": 16,
  "ShimSetting": [618, -7175, -8840, 638, 33, 33, -100, -10],
  "SliceThickness": 2,
  "SliceTiming": [0, 0.785, 0.0975, 0.8825, 0.195, 0.98, 0.295, 1.0775, 0.3925, 1.175, 0.49, 1.275, 0.5875, 1.3725, 0.685, 0, 0.785, 0.0975, 0.8825, 0.195, 0.98, 0.295, 1.0775, 0.3925, 1.175, 0.49, 1.275, 0.5875, 1.3725, 0.685, 0, 0.785, 0.0975, 0.8825, 0.195, 0.98, 0.295, 1.0775, 0.3925, 1.175, 0.49, 1.275, 0.5875, 1.3725, 0.685, 0, 0.785, 0.0975, 0.8825, 0.195, 0.98, 0.295, 1.0775, 0.3925, 1.175, 0.49, 1.275, 0.5875, 1.3725, 0.685],
  "SoftwareVersions": "syngo MR E11",
  "SpacingBetweenSlices": 2,
  "StationName": "MRC35049",
  "TaskName": "fLoc",
  "TotalReadoutTime": 0.0576811,
  "TxRefAmp": 271.376,
  "WipMemBlock": "1da7a08a-9f1c-4301-abba-1f240d618c23||Sequence: R016 ve11c/master r/e634e98; Dec 19 2017 11:00:25 by eja",
  "dcmmeta_affine": [
    [-1.9954843521118164, -0.11191433668136597, 0.07428007572889328, 110.3791275024414],
    [-0.13234815001487732, 1.827069640159607, -0.8026833534240723, -48.77393341064453],
    [0.022941546514630318, 0.8057864308357239, 1.8303501605987549, -70.98539733886719],
    [0.0, 0.0, 0.0, 1.0]
],
  "dcmmeta_reorient_transform": [
    [0.0, -1.0, 0.0, 103.0],
    [1.0, 0.0, 0.0, 0.0],
    [0.0, 0.0, 1.0, 0.0],
    [0.0, 0.0, 0.0, 1.0]
],
  "dcmmeta_shape": [104, 104, 60, 155],
  "dcmmeta_slice_dim": 2,
  "dcmmeta_version": 0.6,
  "global": {
    "const": {
      "AcquisitionMatrix": [104, 0, 0, 104],
      "AngioFlag": "N",
      "BitsAllocated": 16,
      "BitsStored": 16,
      "BodyPartExamined": "BRAIN",
      "Columns": 832,
      "EchoNumbers": 1,
      "EchoTime": 37.0,
      "EchoTrainLength": 104,
      "FlipAngle": 52.0,
      "HighBit": 15,
      "ImageOrientationPatient": [0.99774215749419, 0.06617407741687, 0.01147077315943, -0.055957168557, 0.91353480533663, -0.4028932299328],
      "ImagePositionPatient": [-784.47142320181, -852.64230369554, 296.96615737525],
      "ImageType": [
        "ORIGINAL",
        "PRIMARY",
        "M",
        "MB",
        "ND",
        "MOSAIC"
],
      "ImagedNucleus": "1H",
      "ImagingFrequency": 123.258911,
      "InPlanePhaseEncodingDirection": "COL",
      "MRAcquisitionType": "2D",
      "MagneticFieldStrength": 3.0,
      "Manufacturer": "SIEMENS",
      "ManufacturerModelName": "Prisma_fit",
      "Modality": "MR",
      "NumberOfAverages": 1.0,
      "NumberOfPhaseEncodingSteps": 104,
      "PercentPhaseFieldOfView": 100.0,
      "PercentSampling": 100.0,
      "PerformedProcedureStepStartTime": "181203.121000",
      "PhotometricInterpretation": "MONOCHROME2",
      "PixelBandwidth": 2290.0,
      "PixelRepresentation": 0,
      "PixelSpacing": [2.0, 2.0],
      "ProtocolName": "task_fLoc_run-2",
      "RepetitionTime": 1490.0,
      "Rows": 832,
      "SAR": 0.04813929953549,
      "SamplesPerPixel": 1,
      "ScanOptions": "FS",
      "ScanningSequence": "EP",
      "SequenceName": "epfid2d1_104",
      "SequenceVariant": [
        "SK",
        "SS"
],
      "SeriesDescription": "task_fLoc_run-2",
      "SeriesNumber": 16,
      "SeriesTime": "183022.971000",
      "SliceLocation": -41.289569870344,
      "SliceThickness": 2.0,
      "SmallestImagePixelValue": 0,
      "SoftwareVersions": "syngo MR E11",
      "SpacingBetweenSlices": 1.999999994546,
      "SpecificCharacterSet": "ISO_IR 100",
      "StudyID": "1",
      "StudyTime": "181202.803000",
      "TransmitCoilName": "Body",
      "VariableFlipAngleFlag": "N",
      "WindowCenterWidthExplanation": "Algo1",
      "dBdt": 0.0},
    "slices": {}
  },
  "time": {
    "samples": {
      "AcquisitionNumber": [1, 2, 3, 4, 5, 6, 7, 8, 9, 10, 11, 12, 13, 14, 15, 16, 17, 18, 19, 20, 21, 22, 23, 24, 25, 26, 27, 28, 29, 30, 31, 32, 33, 34, 35, 36, 37, 38, 39, 40, 41, 42, 43, 44, 45, 46, 47, 48, 49, 50, 51, 52, 53, 54, 55, 56, 57, 58, 59, 60, 61, 62, 63, 64, 65, 66, 67, 68, 69, 70, 71, 72, 73, 74, 75, 76, 77, 78, 79, 80, 81, 82, 83, 84, 85, 86, 87, 88, 89, 90, 91, 92, 93, 94, 95, 96, 97, 98, 99, 100, 101, 102, 103, 104, 105, 106, 107, 108, 109, 110, 111, 112, 113, 114, 115, 116, 117, 118, 119, 120, 121, 122, 123, 124, 125, 126, 127, 128, 129, 130, 131, 132, 133, 134, 135, 136, 137, 138, 139, 140, 141, 142, 143, 144, 145, 146, 147, 148, 149, 150, 151, 152, 153, 154, 155],
      "AcquisitionTime": ["182900.795000", "182902.285000", "182903.775000", "182905.265000", "182906.755000", "182908.245000", "182909.735000", "182911.225000", "182912.715000", "182914.205000", "182915.695000", "182917.185000", "182918.675000", "182920.165000", "182921.655000", "182923.145000", "182924.635000", "182926.125000", "182927.615000", "182929.105000", "182930.595000", "182932.085000", "182933.575000", "182935.065000", "182936.555000", "182938.045000", "182939.535000", "182941.025000", "182942.515000", "182944.005000", "182945.495000", "182946.985000", "182948.475000", "182949.965000", "182951.455000", "182952.945000", "182954.435000", "182955.925000", "182957.415000", "182958.905000", "183000.395000", "183001.885000", "183003.375000", "183004.865000", "183006.355000", "183007.845000", "183009.335000", "183010.825000", "183012.315000", "183013.805000", "183015.295000", "183016.785000", "183018.275000", "183019.765000", "183021.255000", "183022.745000", "183024.235000", "183025.725000", "183027.215000", "183028.705000", "183030.195000", "183031.685000", "183033.175000", "183034.665000", "183036.155000", "183037.645000", "183039.135000", "183040.625000", "183042.115000", "183043.605000", "183045.095000", "183046.585000", "183048.075000", "183049.565000", "183051.055000", "183052.545000", "183054.035000", "183055.525000", "183057.015000", "183058.505000", "183059.995000", "183101.485000", "183102.975000", "183104.465000", "183105.955000", "183107.445000", "183108.935000", "183110.425000", "183111.915000", "183113.405000", "183114.895000", "183116.385000", "183117.875000", "183119.365000", "183120.855000", "183122.345000", "183123.835000", "183125.325000", "183126.815000", "183128.305000", "183129.795000", "183131.285000", "183132.775000", "183134.265000", "183135.755000", "183137.245000", "183138.735000", "183140.225000", "183141.715000", "183143.205000", "183144.695000", "183146.185000", "183147.675000", "183149.165000", "183150.655000", "183152.145000", "183153.635000", "183155.125000", "183156.615000", "183158.105000", "183159.595000", "183201.085000", "183202.575000", "183204.065000", "183205.555000", "183207.045000", "183208.535000", "183210.025000", "183211.515000", "183213.005000", "183214.495000", "183215.985000", "183217.475000", "183218.965000", "183220.455000", "183221.945000", "183223.435000", "183224.925000", "183226.415000", "183227.905000", "183229.395000", "183230.885000", "183232.375000", "183233.865000", "183235.355000", "183236.845000", "183238.335000", "183239.825000", "183241.315000", "183242.805000", "183244.295000", "183245.785000", "183247.275000", "183248.765000", "183250.255000"],
      "ContentTime": ["183022.974000", "183022.978000", "183022.982000", "183022.985000", "183022.988000", "183022.991000", "183022.995000", "183022.998000", "183023.002000", "183023.005000", "183023.009000", "183023.012000", "183023.015000", "183023.018000", "183023.022000", "183023.025000", "183023.028000", "183023.031000", "183023.039000", "183023.042000", "183023.045000", "183023.049000", "183023.052000", "183023.055000", "183023.058000", "183023.062000", "183023.065000", "183042.922000", "183042.926000", "183042.929000", "183042.932000", "183042.936000", "183042.939000", "183042.942000", "183042.945000", "183042.949000", "183042.952000", "183042.955000", "183042.959000", "183042.962000", "183042.965000", "183042.968000", "183042.972000", "183042.975000", "183042.978000", "183042.982000", "183042.991000", "183042.995000", "183102.922000", "183102.926000", "183102.929000", "183102.932000", "183102.936000", "183102.939000", "183102.942000", "183102.946000", "183102.956000", "183102.959000", "183102.962000", "183102.966000", "183102.969000", "183102.972000", "183102.976000", "183102.979000", "183102.982000", "183102.985000", "183102.989000", "183102.992000", "183122.921000", "183122.925000", "183122.928000", "183122.931000", "183122.935000", "183122.938000", "183122.941000", "183122.944000", "183122.948000", "183122.951000", "183122.954000", "183122.958000", "183122.961000", "183122.964000", "183122.967000", "183122.971000", "183122.974000", "183122.977000", "183122.980000", "183122.984000", "183142.921000", "183142.925000", "183142.928000", "183142.931000", "183142.935000", "183142.938000", "183142.941000", "183142.945000", "183142.948000", "183142.951000", "183142.954000", "183142.958000", "183142.961000", "183142.964000", "183142.967000", "183142.971000", "183142.974000", "183142.977000", "183142.980000", "183142.984000", "183222.922000", "183222.926000", "183222.929000", "183222.933000", "183222.936000", "183222.939000", "183222.943000", "183222.946000", "183222.949000", "183222.953000", "183222.956000", "183222.959000", "183222.962000", "183222.966000", "183222.969000", "183222.972000", "183222.976000", "183222.979000", "183222.982000", "183222.985000", "183222.989000", "183222.992000", "183222.995000", "183223.000000", "183223.003000", "183223.006000", "183223.009000", "183251.963000", "183251.967000", "183251.970000", "183251.974000", "183251.977000", "183251.980000", "183251.984000", "183251.987000", "183251.990000", "183251.994000", "183251.997000", "183252.001000", "183252.004000", "183252.008000", "183252.011000", "183252.014000", "183252.017000", "183252.021000", "183252.024000", "183252.027000"],
      "InstanceCreationTime": ["183022.974000", "183022.978000", "183022.982000", "183022.985000", "183022.988000", "183022.991000", "183022.995000", "183022.998000", "183023.002000", "183023.005000", "183023.009000", "183023.012000", "183023.015000", "183023.018000", "183023.022000", "183023.025000", "183023.028000", "183023.031000", "183023.039000", "183023.042000", "183023.045000", "183023.049000", "183023.052000", "183023.055000", "183023.058000", "183023.062000", "183023.065000", "183042.922000", "183042.926000", "183042.929000", "183042.932000", "183042.936000", "183042.939000", "183042.942000", "183042.945000", "183042.949000", "183042.952000", "183042.955000", "183042.959000", "183042.962000", "183042.965000", "183042.968000", "183042.972000", "183042.975000", "183042.978000", "183042.982000", "183042.991000", "183042.995000", "183102.922000", "183102.926000", "183102.929000", "183102.932000", "183102.936000", "183102.939000", "183102.942000", "183102.946000", "183102.956000", "183102.959000", "183102.962000", "183102.966000", "183102.969000", "183102.972000", "183102.976000", "183102.979000", "183102.982000", "183102.985000", "183102.989000", "183102.992000", "183122.921000", "183122.925000", "183122.928000", "183122.931000", "183122.935000", "183122.938000", "183122.941000", "183122.944000", "183122.948000", "183122.951000", "183122.954000", "183122.958000", "183122.961000", "183122.964000", "183122.967000", "183122.971000", "183122.974000", "183122.977000", "183122.980000", "183122.984000", "183142.921000", "183142.925000", "183142.928000", "183142.931000", "183142.935000", "183142.938000", "183142.941000", "183142.945000", "183142.948000", "183142.951000", "183142.954000", "183142.958000", "183142.961000", "183142.964000", "183142.967000", "183142.971000", "183142.974000", "183142.977000", "183142.980000", "183142.984000", "183222.922000", "183222.926000", "183222.929000", "183222.933000", "183222.936000", "183222.939000", "183222.943000", "183222.946000", "183222.949000", "183222.953000", "183222.956000", "183222.959000", "183222.962000", "183222.966000", "183222.969000", "183222.972000", "183222.976000", "183222.979000", "183222.982000", "183222.985000", "183222.989000", "183222.992000", "183222.995000", "183223.000000", "183223.003000", "183223.006000", "183223.009000", "183251.963000", "183251.967000", "183251.970000", "183251.974000", "183251.977000", "183251.980000", "183251.984000", "183251.987000", "183251.990000", "183251.994000", "183251.997000", "183252.001000", "183252.004000", "183252.008000", "183252.011000", "183252.014000", "183252.017000", "183252.021000", "183252.024000", "183252.027000"],
      "InstanceNumber": [1, 2, 3, 4, 5, 6, 7, 8, 9, 10, 11, 12, 13, 14, 15, 16, 17, 18, 19, 20, 21, 22, 23, 24, 25, 26, 27, 28, 29, 30, 31, 32, 33, 34, 35, 36, 37, 38, 39, 40, 41, 42, 43, 44, 45, 46, 47, 48, 49, 50, 51, 52, 53, 54, 55, 56, 57, 58, 59, 60, 61, 62, 63, 64, 65, 66, 67, 68, 69, 70, 71, 72, 73, 74, 75, 76, 77, 78, 79, 80, 81, 82, 83, 84, 85, 86, 87, 88, 89, 90, 91, 92, 93, 94, 95, 96, 97, 98, 99, 100, 101, 102, 103, 104, 105, 106, 107, 108, 109, 110, 111, 112, 113, 114, 115, 116, 117, 118, 119, 120, 121, 122, 123, 124, 125, 126, 127, 128, 129, 130, 131, 132, 133, 134, 135, 136, 137, 138, 139, 140, 141, 142, 143, 144, 145, 146, 147, 148, 149, 150, 151, 152, 153, 154, 155],
      "LargestImagePixelValue": [46216, 46440, 44378, 44826, 43937, 45997, 45008, 45717, 45359, 44447, 43635, 42205, 43905, 44487, 43695, 42709, 43616, 42048, 42425, 42165, 43057, 42896, 43308, 42912, 42961, 43504, 42637, 43440, 46737, 46673, 45932, 46788, 45933, 45268, 45520, 44850, 43669, 44072, 43503, 42813, 44705, 43231, 44030, 44205, 44042, 43997, 44372, 44408, 44450, 43804, 44827, 45379, 45247, 45619, 43588, 43740, 44069, 44011, 44314, 43323, 40431, 40969, 42836, 43095, 43837, 44119, 44225, 44052, 43934, 43876, 43348, 43582, 44005, 42912, 43715, 43229, 43088, 42821, 42793, 43000, 42282, 41954, 42685, 41763, 42687, 41699, 41906, 42616, 42617, 42673, 42363, 42128, 42117, 42397, 42661, 41704, 42366, 42425, 41641, 41628, 42041, 40986, 41829, 46361, 40625, 41938, 43011, 42819, 42790, 42487, 42854, 42922, 42839, 43174, 42287, 42077, 41800, 40996, 40547, 40054, 39818, 40096, 40660, 41903, 40822, 45141, 40899, 40359, 40393, 40881, 40170, 41572, 40885, 39968, 40395, 40549, 40004, 39831, 40165, 40425, 39569, 39522, 40613, 40440, 40017, 46912, 43115, 40557, 40478, 39885, 42216, 40730, 39928, 40051, 41563],
      "WindowCenter": [10662.0, 10624.0, 10607.0, 10635.0, 10628.0, 10641.0, 10626.0, 10630.0, 10614.0, 10603.0, 10603.0, 10615.0, 10633.0, 10625.0, 10605.0, 10579.0, 10578.0, 10579.0, 10604.0, 10600.0, 10601.0, 10592.0, 10599.0, 10609.0, 10623.0, 10622.0, 10620.0, 10623.0, 10632.0, 10615.0, 10613.0, 10641.0, 10640.0, 10622.0, 10618.0, 10603.0, 10602.0, 10623.0, 10615.0, 10603.0, 10601.0, 10577.0, 10593.0, 10597.0, 10595.0, 10589.0, 10591.0, 10575.0, 10574.0, 10580.0, 10629.0, 10661.0, 10660.0, 10647.0, 10603.0, 10604.0, 10619.0, 10644.0, 10642.0, 10540.0, 10599.0, 10587.0, 10626.0, 10626.0, 10634.0, 10622.0, 10614.0, 10613.0, 10605.0, 10602.0, 10615.0, 10618.0, 10620.0, 10595.0, 10605.0, 10604.0, 10598.0, 10591.0, 10609.0, 10611.0, 10597.0, 10591.0, 10588.0, 10579.0, 10600.0, 10589.0, 10606.0, 10619.0, 10618.0, 10619.0, 10612.0, 10610.0, 10611.0, 10610.0, 10621.0, 10610.0, 10624.0, 10624.0, 10620.0, 10611.0, 10607.0, 10609.0, 10633.0, 10682.0, 10615.0, 10617.0, 10611.0, 10626.0, 10648.0, 10635.0, 10605.0, 10586.0, 10568.0, 10563.0, 10567.0, 10590.0, 10593.0, 10579.0, 10564.0, 10558.0, 10552.0, 10554.0, 10561.0, 10578.0, 10598.0, 10674.0, 10615.0, 10595.0, 10576.0, 10570.0, 10578.0, 10615.0, 10606.0, 10598.0, 10587.0, 10565.0, 10550.0, 10558.0, 10588.0, 10584.0, 10569.0, 10561.0, 10561.0, 10552.0, 10563.0, 10647.0, 10641.0, 10608.0, 10602.0, 10602.0, 10614.0, 10597.0, 10593.0, 10603.0, 10638.0],
      "WindowWidth": [22691.0, 22577.0, 22535.0, 22598.0, 22583.0, 22601.0, 22569.0, 22575.0, 22534.0, 22512.0, 22516.0, 22550.0, 22589.0, 22569.0, 22523.0, 22467.0, 22458.0, 22470.0, 22528.0, 22518.0, 22515.0, 22495.0, 22510.0, 22535.0, 22579.0, 22570.0, 22568.0, 22568.0, 22577.0, 22538.0, 22536.0, 22599.0, 22607.0, 22564.0, 22549.0, 22515.0, 22518.0, 22567.0, 22545.0, 22522.0, 22506.0, 22461.0, 22492.0, 22503.0, 22495.0, 22484.0, 22481.0, 22446.0, 22445.0, 22462.0, 22578.0, 22651.0, 22662.0, 22614.0, 22522.0, 22520.0, 22556.0, 22619.0, 22609.0, 22378.0, 22541.0, 22489.0, 22577.0, 22570.0, 22587.0, 22554.0, 22537.0, 22535.0, 22517.0, 22510.0, 22542.0, 22551.0, 22552.0, 22496.0, 22516.0, 22515.0, 22502.0, 22490.0, 22533.0, 22538.0, 22502.0, 22490.0, 22481.0, 22461.0, 22513.0, 22485.0, 22526.0, 22552.0, 22552.0, 22559.0, 22539.0, 22532.0, 22534.0, 22533.0, 22565.0, 22540.0, 22570.0, 22572.0, 22565.0, 22542.0, 22531.0, 22542.0, 22596.0, 22701.0, 22551.0, 22553.0, 22532.0, 22567.0, 22622.0, 22594.0, 22518.0, 22474.0, 22433.0, 22419.0, 22435.0, 22493.0, 22498.0, 22464.0, 22429.0, 22420.0, 22409.0, 22413.0, 22429.0, 22464.0, 22516.0, 22690.0, 22556.0, 22515.0, 22467.0, 22448.0, 22473.0, 22562.0, 22534.0, 22523.0, 22495.0, 22436.0, 22404.0, 22427.0, 22494.0, 22485.0, 22449.0, 22429.0, 22425.0, 22404.0, 22435.0, 22614.0, 22616.0, 22539.0, 22531.0, 22533.0, 22552.0, 22511.0, 22508.0, 22534.0, 22615.0]
    },
    "slices": {}
  }
}