{
  "AcquisitionMatrixPE": 104,
  "AcquisitionNumber": 1,
  "AcquisitionTime": "11:29:13.935000",
  "BandwidthPerPixelPhaseEncode": 17.17,
  "BaseResolution": 104,
  "BodyPartExamined": "BRAIN",
  "CoilCombinationMethod": "Sum of Squares",
  "ConsistencyInfo": "N4_VE11C_LATEST_20160120",
  "ConversionSoftware": "dcm2niix",
  "ConversionSoftwareVersion": "v1.0.20211006",
  "DerivedVendorReportedEchoSpacing": 0.000560011,
  "DeviceSerialNumber": "167006",
  "DwellTime": 2.1e-06,
  "EchoTime": 0.037,
  "EchoTime1": 0.037,
  "EchoTime2": 0.001,
  "EchoTrainLength": 104,
  "EffectiveEchoSpacing": 0.000560011,
  "FlipAngle": 52,
  "HeudiconvVersion": "0.10.0",
  "ImageComments": "Unaliased MB4/PE3/LB",
  "ImageOrientationPatientDICOM": [0.999728, 0.0158248, 0.0171429, -0.00453665, 0.852626, -0.522502],
  "ImageOrientationText": "Tra>Cor(-31.5)>Sag(1.3)",
  "ImageType": [
    "ORIGINAL",
    "PRIMARY",
    "P",
    "MB",
    "ND",
    "MOSAIC",
    "PHASE"
],
  "ImagingFrequency": 123.259,
  "InPlanePhaseEncodingDirectionDICOM": "COL",
  "InstitutionAddress": "Chemin Queen-Mary 4565,Montreal,District,CA,H3W 1W5",
  "InstitutionName": "IUGM",
  "InstitutionalDepartmentName": "Department",
  "MRAcquisitionType": "2D",
  "MagneticFieldStrength": 3,
  "Manufacturer": "Siemens",
  "ManufacturersModelName": "Prisma_fit",
  "MatrixCoilMode": "SENSE",
  "Modality": "MR",
  "MultibandAccelerationFactor": 4,
  "PartialFourier": 1,
  "PatientPosition": "HFS",
  "PercentPhaseFOV": 100,
  "PercentSampling": 100,
  "PhaseEncodingDirection": "j",
  "PhaseEncodingSteps": 104,
  "PhaseResolution": 1,
  "PixelBandwidth": 2290,
  "ProcedureStepDescription": "localizers^fLoc",
  "ProtocolName": "task_fLoc_run-1",
  "PulseSequenceDetails": "%CustomerSeq%\\cmrr_mbep2d_bold",
  "ReceiveCoilActiveElements": "HC1-7;NC1,2",
  "ReceiveCoilName": "HeadNeck_64",
  "ReconMatrixPE": 104,
  "RepetitionTime": 1.49,
  "SAR": 0.0500769,
  "ScanOptions": "FS",
  "ScanningSequence": "EP",
  "SequenceName": "epfid2d1_104",
  "SequenceVariant": "SK\\SS",
  "SeriesDescription": "task_fLoc_run-1",
  "SeriesNumber": 11,
  "ShimSetting": [620, -7191, -8869, 258, 20, -168, -24, -15],
  "SliceThickness": 2,
  "SliceTiming": [0, 0.7825, 0.0975, 0.8825, 0.195, 0.98, 0.2925, 1.0775, 0.3925, 1.175, 0.49, 1.2725, 0.5875, 1.3725, 0.685, 0, 0.7825, 0.0975, 0.8825, 0.195, 0.98, 0.2925, 1.0775, 0.3925, 1.175, 0.49, 1.2725, 0.5875, 1.3725, 0.685, 0, 0.7825, 0.0975, 0.8825, 0.195, 0.98, 0.2925, 1.0775, 0.3925, 1.175, 0.49, 1.2725, 0.5875, 1.3725, 0.685, 0, 0.7825, 0.0975, 0.8825, 0.195, 0.98, 0.2925, 1.0775, 0.3925, 1.175, 0.49, 1.2725, 0.5875, 1.3725, 0.685],
  "SoftwareVersions": "syngo MR E11",
  "SpacingBetweenSlices": 2,
  "StationName": "MRC35049",
  "TaskName": "fLoc",
  "TotalReadoutTime": 0.0576811,
  "TxRefAmp": 270.667,
  "WipMemBlock": "69ab3533-d981-4a69-9e09-a898ade0516f||Sequence: R016 ve11c/master r/e634e98; Dec 19 2017 11:00:25 by eja",
  "dcmmeta_affine": [
    [-1.9994555711746216, -0.009073304943740368, 0.04576995596289635, 106.41014099121094],
    [-0.03164957836270332, 1.705251932144165, -1.044564127922058, -48.25392150878906],
    [0.03428582847118378, 1.04500412940979, 1.704931378364563, -95.40846252441406],
    [0.0, 0.0, 0.0, 1.0]
],
  "dcmmeta_reorient_transform": [
    [0.0, -1.0, 0.0, 103.0],
    [1.0, 0.0, 0.0, 0.0],
    [0.0, 0.0, 1.0, 0.0],
    [0.0, 0.0, 0.0, 1.0]
],
  "dcmmeta_shape": [104, 104, 60, 155],
  "dcmmeta_slice_dim": 2,
  "dcmmeta_version": 0.6,
  "global": {
    "const": {
      "AcquisitionMatrix": [104, 0, 0, 104],
      "AngioFlag": "N",
      "BitsAllocated": 16,
      "BitsStored": 16,
      "BodyPartExamined": "BRAIN",
      "Columns": 832,
      "EchoNumbers": 1,
      "EchoTime": 37.0,
      "EchoTrainLength": 104,
      "FlipAngle": 52.0,
      "HighBit": 15,
      "ImageOrientationPatient": [0.99972781122579, 0.01582478853323, 0.01714291485067, -0.0045366522867, 0.85262596182225, -0.5225020459412],
      "ImagePositionPatient": [-829.97475331799, -759.61917386241, 380.12840613713],
      "ImageType": [
        "ORIGINAL",
        "PRIMARY",
        "P",
        "MB",
        "ND",
        "MOSAIC"
],
      "ImagedNucleus": "1H",
      "ImagingFrequency": 123.258897,
      "InPlanePhaseEncodingDirection": "COL",
      "LargestImagePixelValue": 4095,
      "MRAcquisitionType": "2D",
      "MagneticFieldStrength": 3.0,
      "Manufacturer": "SIEMENS",
      "ManufacturerModelName": "Prisma_fit",
      "Modality": "MR",
      "NumberOfAverages": 1.0,
      "NumberOfPhaseEncodingSteps": 104,
      "PercentPhaseFieldOfView": 100.0,
      "PercentSampling": 100.0,
      "PerformedProcedureStepStartTime": "112540.310000",
      "PhotometricInterpretation": "MONOCHROME2",
      "PixelBandwidth": 2290.0,
      "PixelRepresentation": 0,
      "PixelSpacing": [2.0, 2.0],
      "ProtocolName": "task_fLoc_run-1",
      "RepetitionTime": 1490.0,
      "RescaleIntercept": -4096.0,
      "RescaleSlope": 2.0,
      "RescaleType": "US",
      "Rows": 832,
      "SAR": 0.05007693869844,
      "SamplesPerPixel": 1,
      "ScanOptions": "FS",
      "ScanningSequence": "EP",
      "SequenceName": "epfid2d1_104",
      "SequenceVariant": [
        "SK",
        "SS"
],
      "SeriesDescription": "task_fLoc_run-1",
      "SeriesNumber": 11,
      "SeriesTime": "113035.433000",
      "SliceLocation": -53.695089337081,
      "SliceThickness": 2.0,
      "SmallestImagePixelValue": 0,
      "SoftwareVersions": "syngo MR E11",
      "SpacingBetweenSlices": 1.9999999949401,
      "SpecificCharacterSet": "ISO_IR 100",
      "StudyID": "1",
      "StudyTime": "112540.222000",
      "TransmitCoilName": "Body",
      "VariableFlipAngleFlag": "N",
      "WindowCenterWidthExplanation": "Algo1",
      "dBdt": 0.0},
    "slices": {}
  },
  "time": {
    "samples": {
      "AcquisitionNumber": [1, 2, 3, 4, 5, 6, 7, 8, 9, 10, 11, 12, 13, 14, 15, 16, 17, 18, 19, 20, 21, 22, 23, 24, 25, 26, 27, 28, 29, 30, 31, 32, 33, 34, 35, 36, 37, 38, 39, 40, 41, 42, 43, 44, 45, 46, 47, 48, 49, 50, 51, 52, 53, 54, 55, 56, 57, 58, 59, 60, 61, 62, 63, 64, 65, 66, 67, 68, 69, 70, 71, 72, 73, 74, 75, 76, 77, 78, 79, 80, 81, 82, 83, 84, 85, 86, 87, 88, 89, 90, 91, 92, 93, 94, 95, 96, 97, 98, 99, 100, 101, 102, 103, 104, 105, 106, 107, 108, 109, 110, 111, 112, 113, 114, 115, 116, 117, 118, 119, 120, 121, 122, 123, 124, 125, 126, 127, 128, 129, 130, 131, 132, 133, 134, 135, 136, 137, 138, 139, 140, 141, 142, 143, 144, 145, 146, 147, 148, 149, 150, 151, 152, 153, 154, 155],
      "AcquisitionTime": ["112913.935000", "112915.425000", "112916.915000", "112918.405000", "112919.895000", "112921.385000", "112922.875000", "112924.365000", "112925.855000", "112927.345000", "112928.835000", "112930.325000", "112931.815000", "112933.305000", "112934.795000", "112936.285000", "112937.775000", "112939.265000", "112940.755000", "112942.245000", "112943.735000", "112945.225000", "112946.715000", "112948.205000", "112949.695000", "112951.185000", "112952.675000", "112954.165000", "112955.655000", "112957.145000", "112958.635000", "113000.125000", "113001.615000", "113003.105000", "113004.595000", "113006.085000", "113007.575000", "113009.065000", "113010.555000", "113012.045000", "113013.535000", "113015.025000", "113016.515000", "113018.005000", "113019.495000", "113020.985000", "113022.475000", "113023.965000", "113025.455000", "113026.945000", "113028.435000", "113029.925000", "113031.415000", "113032.905000", "113034.395000", "113035.885000", "113037.375000", "113038.865000", "113040.355000", "113041.845000", "113043.335000", "113044.825000", "113046.315000", "113047.805000", "113049.295000", "113050.785000", "113052.275000", "113053.765000", "113055.255000", "113056.745000", "113058.235000", "113059.725000", "113101.215000", "113102.705000", "113104.195000", "113105.685000", "113107.175000", "113108.665000", "113110.155000", "113111.645000", "113113.135000", "113114.625000", "113116.115000", "113117.605000", "113119.095000", "113120.585000", "113122.075000", "113123.565000", "113125.055000", "113126.545000", "113128.035000", "113129.525000", "113131.015000", "113132.505000", "113133.995000", "113135.485000", "113136.975000", "113138.465000", "113139.955000", "113141.445000", "113142.935000", "113144.425000", "113145.915000", "113147.405000", "113148.895000", "113150.385000", "113151.875000", "113153.365000", "113154.855000", "113156.345000", "113157.835000", "113159.325000", "113200.815000", "113202.305000", "113203.795000", "113205.285000", "113206.775000", "113208.265000", "113209.755000", "113211.245000", "113212.735000", "113214.225000", "113215.715000", "113217.205000", "113218.695000", "113220.185000", "113221.675000", "113223.165000", "113224.655000", "113226.145000", "113227.635000", "113229.125000", "113230.615000", "113232.105000", "113233.595000", "113235.085000", "113236.575000", "113238.065000", "113239.555000", "113241.045000", "113242.535000", "113244.025000", "113245.515000", "113247.005000", "113248.495000", "113249.985000", "113251.475000", "113252.965000", "113254.455000", "113255.945000", "113257.435000", "113258.925000", "113300.415000", "113301.905000", "113303.395000"],
      "ContentTime": ["113035.435000", "113035.438000", "113035.441000", "113035.443000", "113035.446000", "113035.448000", "113035.451000", "113035.453000", "113035.456000", "113035.458000", "113035.461000", "113035.463000", "113035.466000", "113035.468000", "113035.471000", "113035.473000", "113035.476000", "113035.479000", "113035.481000", "113035.484000", "113035.486000", "113035.489000", "113035.491000", "113035.494000", "113035.496000", "113035.499000", "113035.501000", "113035.504000", "113055.364000", "113055.367000", "113055.374000", "113055.377000", "113055.379000", "113055.382000", "113055.384000", "113055.387000", "113055.389000", "113055.392000", "113055.394000", "113055.397000", "113055.400000", "113055.402000", "113055.405000", "113055.407000", "113055.410000", "113055.412000", "113055.415000", "113055.418000", "113115.380000", "113115.383000", "113115.386000", "113115.388000", "113115.391000", "113115.393000", "113115.396000", "113115.398000", "113115.401000", "113115.403000", "113115.411000", "113115.414000", "113115.416000", "113115.419000", "113115.421000", "113115.424000", "113115.426000", "113115.429000", "113115.432000", "113115.435000", "113135.362000", "113135.365000", "113135.367000", "113135.370000", "113135.372000", "113135.375000", "113135.377000", "113135.380000", "113135.383000", "113135.385000", "113135.387000", "113135.390000", "113135.392000", "113135.395000", "113135.397000", "113135.400000", "113135.402000", "113135.405000", "113135.407000", "113135.410000", "113215.857000", "113215.860000", "113215.863000", "113215.865000", "113215.868000", "113215.870000", "113215.873000", "113215.875000", "113215.878000", "113215.880000", "113215.883000", "113215.885000", "113215.888000", "113215.891000", "113215.893000", "113215.896000", "113215.898000", "113215.900000", "113215.903000", "113215.906000", "113215.908000", "113215.911000", "113215.913000", "113215.916000", "113215.918000", "113215.921000", "113215.923000", "113215.926000", "113215.928000", "113215.931000", "113215.933000", "113215.936000", "113255.395000", "113255.398000", "113255.401000", "113255.403000", "113255.406000", "113255.408000", "113255.411000", "113255.414000", "113255.417000", "113255.420000", "113255.422000", "113255.425000", "113255.427000", "113255.430000", "113255.433000", "113255.435000", "113255.438000", "113255.440000", "113255.443000", "113255.445000", "113255.448000", "113255.450000", "113255.453000", "113255.455000", "113255.458000", "113255.461000", "113255.463000", "113306.113000", "113306.116000", "113306.119000", "113306.121000", "113306.124000", "113306.127000", "113306.129000", "113306.132000"],
      "InstanceCreationTime": ["113035.435000", "113035.438000", "113035.441000", "113035.443000", "113035.446000", "113035.448000", "113035.451000", "113035.453000", "113035.456000", "113035.458000", "113035.461000", "113035.463000", "113035.466000", "113035.468000", "113035.471000", "113035.473000", "113035.476000", "113035.479000", "113035.481000", "113035.484000", "113035.486000", "113035.489000", "113035.491000", "113035.494000", "113035.496000", "113035.499000", "113035.501000", "113035.504000", "113055.364000", "113055.367000", "113055.374000", "113055.377000", "113055.379000", "113055.382000", "113055.384000", "113055.387000", "113055.389000", "113055.392000", "113055.394000", "113055.397000", "113055.400000", "113055.402000", "113055.405000", "113055.407000", "113055.410000", "113055.412000", "113055.415000", "113055.418000", "113115.380000", "113115.383000", "113115.386000", "113115.388000", "113115.391000", "113115.393000", "113115.396000", "113115.398000", "113115.401000", "113115.403000", "113115.411000", "113115.414000", "113115.416000", "113115.419000", "113115.421000", "113115.424000", "113115.426000", "113115.429000", "113115.432000", "113115.435000", "113135.362000", "113135.365000", "113135.367000", "113135.370000", "113135.372000", "113135.375000", "113135.377000", "113135.380000", "113135.383000", "113135.385000", "113135.387000", "113135.390000", "113135.392000", "113135.395000", "113135.397000", "113135.400000", "113135.402000", "113135.405000", "113135.407000", "113135.410000", "113215.857000", "113215.860000", "113215.863000", "113215.865000", "113215.868000", "113215.870000", "113215.873000", "113215.875000", "113215.878000", "113215.880000", "113215.883000", "113215.885000", "113215.888000", "113215.891000", "113215.893000", "113215.896000", "113215.898000", "113215.900000", "113215.903000", "113215.906000", "113215.908000", "113215.911000", "113215.913000", "113215.916000", "113215.918000", "113215.921000", "113215.923000", "113215.926000", "113215.928000", "113215.931000", "113215.933000", "113215.936000", "113255.395000", "113255.398000", "113255.401000", "113255.403000", "113255.406000", "113255.408000", "113255.411000", "113255.414000", "113255.417000", "113255.420000", "113255.422000", "113255.425000", "113255.427000", "113255.430000", "113255.433000", "113255.435000", "113255.438000", "113255.440000", "113255.443000", "113255.445000", "113255.448000", "113255.450000", "113255.453000", "113255.455000", "113255.458000", "113255.461000", "113255.463000", "113306.113000", "113306.116000", "113306.119000", "113306.121000", "113306.124000", "113306.127000", "113306.129000", "113306.132000"],
      "InstanceNumber": [1, 2, 3, 4, 5, 6, 7, 8, 9, 10, 11, 12, 13, 14, 15, 16, 17, 18, 19, 20, 21, 22, 23, 24, 25, 26, 27, 28, 29, 30, 31, 32, 33, 34, 35, 36, 37, 38, 39, 40, 41, 42, 43, 44, 45, 46, 47, 48, 49, 50, 51, 52, 53, 54, 55, 56, 57, 58, 59, 60, 61, 62, 63, 64, 65, 66, 67, 68, 69, 70, 71, 72, 73, 74, 75, 76, 77, 78, 79, 80, 81, 82, 83, 84, 85, 86, 87, 88, 89, 90, 91, 92, 93, 94, 95, 96, 97, 98, 99, 100, 101, 102, 103, 104, 105, 106, 107, 108, 109, 110, 111, 112, 113, 114, 115, 116, 117, 118, 119, 120, 121, 122, 123, 124, 125, 126, 127, 128, 129, 130, 131, 132, 133, 134, 135, 136, 137, 138, 139, 140, 141, 142, 143, 144, 145, 146, 147, 148, 149, 150, 151, 152, 153, 154, 155],
      "WindowCenter": [4782.0, 4784.0, 4786.0, 4756.0, 4780.0, 4782.0, 4780.0, 4782.0, 4782.0, 4780.0, 4784.0, 4784.0, 4786.0, 4788.0, 4784.0, 4790.0, 4778.0, 4758.0, 4780.0, 4778.0, 4774.0, 4774.0, 4776.0, 4780.0, 4780.0, 4782.0, 4784.0, 4784.0, 4780.0, 4788.0, 4784.0, 4780.0, 4778.0, 4782.0, 4786.0, 4786.0, 4776.0, 4778.0, 4776.0, 4776.0, 4778.0, 4774.0, 4778.0, 4786.0, 4782.0, 4788.0, 4786.0, 4780.0, 4780.0, 4784.0, 4782.0, 4780.0, 4780.0, 4780.0, 4782.0, 4778.0, 4782.0, 4786.0, 4784.0, 4784.0, 4780.0, 4778.0, 4776.0, 4780.0, 4780.0, 4784.0, 4760.0, 4782.0, 4786.0, 4784.0, 4784.0, 4782.0, 4780.0, 4782.0, 4778.0, 4780.0, 4782.0, 4782.0, 4784.0, 4786.0, 4784.0, 4780.0, 4780.0, 4778.0, 4778.0, 4780.0, 4774.0, 4780.0, 4796.0, 4824.0, 4788.0, 4776.0, 4776.0, 4776.0, 4770.0, 4772.0, 4776.0, 4778.0, 4784.0, 4788.0, 4788.0, 4784.0, 4786.0, 4784.0, 4782.0, 4780.0, 4780.0, 4774.0, 4762.0, 4800.0, 4768.0, 4756.0, 4774.0, 4794.0, 4796.0, 4796.0, 4778.0, 4788.0, 4788.0, 4816.0, 4818.0, 4810.0, 4786.0, 4780.0, 4778.0, 4776.0, 4778.0, 4778.0, 4780.0, 4814.0, 4832.0, 4828.0, 4786.0, 4768.0, 4826.0, 4828.0, 4800.0, 4776.0, 4782.0, 4812.0, 4818.0, 4820.0, 4812.0, 4784.0, 4780.0, 4778.0, 4778.0, 4776.0, 4776.0, 4790.0, 4796.0, 4786.0, 4776.0, 4774.0, 4794.0],
      "WindowWidth": [18570.0, 18574.0, 18572.0, 18542.0, 18574.0, 18578.0, 18572.0, 18576.0, 18574.0, 18574.0, 18570.0, 18574.0, 18572.0, 18570.0, 18570.0, 18574.0, 18572.0, 18546.0, 18572.0, 18578.0, 18578.0, 18574.0, 18576.0, 18572.0, 18570.0, 18568.0, 18576.0, 18572.0, 18572.0, 18576.0, 18572.0, 18572.0, 18576.0, 18568.0, 18558.0, 18568.0, 18568.0, 18576.0, 18572.0, 18576.0, 18570.0, 18566.0, 18568.0, 18572.0, 18570.0, 18574.0, 18572.0, 18572.0, 18574.0, 18576.0, 18576.0, 18574.0, 18580.0, 18572.0, 18576.0, 18574.0, 18568.0, 18572.0, 18574.0, 18576.0, 18578.0, 18572.0, 18574.0, 18572.0, 18572.0, 18578.0, 18540.0, 18574.0, 18574.0, 18574.0, 18576.0, 18576.0, 18576.0, 18574.0, 18574.0, 18574.0, 18576.0, 18572.0, 18572.0, 18576.0, 18570.0, 18570.0, 18576.0, 18576.0, 18572.0, 18576.0, 18570.0, 18572.0, 18564.0, 18590.0, 18570.0, 18574.0, 18576.0, 18574.0, 18570.0, 18570.0, 18570.0, 18572.0, 18572.0, 18574.0, 18570.0, 18572.0, 18576.0, 18576.0, 18572.0, 18578.0, 18576.0, 18572.0, 18530.0, 18556.0, 18528.0, 18542.0, 18574.0, 18604.0, 18602.0, 18600.0, 18572.0, 18578.0, 18576.0, 18610.0, 18608.0, 18606.0, 18576.0, 18572.0, 18574.0, 18572.0, 18576.0, 18572.0, 18576.0, 18598.0, 18590.0, 18580.0, 18562.0, 18566.0, 18642.0, 18642.0, 18602.0, 18578.0, 18572.0, 18606.0, 18608.0, 18608.0, 18610.0, 18572.0, 18576.0, 18576.0, 18576.0, 18572.0, 18570.0, 18554.0, 18550.0, 18568.0, 18574.0, 18576.0, 18596.0]
    },
    "slices": {}
  }
}