{
  "AcquisitionMatrixPE": 104,
  "AcquisitionNumber": 1,
  "AcquisitionTime": "11:33:33.605000",
  "BandwidthPerPixelPhaseEncode": 17.17,
  "BaseResolution": 104,
  "BodyPartExamined": "BRAIN",
  "CoilCombinationMethod": "Sum of Squares",
  "ConsistencyInfo": "N4_VE11C_LATEST_20160120",
  "ConversionSoftware": "dcm2niix",
  "ConversionSoftwareVersion": "v1.0.20211006",
  "DerivedVendorReportedEchoSpacing": 0.000560011,
  "DeviceSerialNumber": "167006",
  "DwellTime": 2.1e-06,
  "EchoTime": 0.037,
  "EchoTrainLength": 104,
  "EffectiveEchoSpacing": 0.000560011,
  "FlipAngle": 52,
  "HeudiconvVersion": "0.10.0",
  "ImageComments": "Unaliased MB4/PE3/LB",
  "ImageOrientationPatientDICOM": [0.999562, 0.0038869, 0.0293398, 0.0109913, 0.871689, -0.489936],
  "ImageOrientationText": "Tra>Cor(-29.4)>Sag(1.6)",
  "ImageType": [
    "ORIGINAL",
    "PRIMARY",
    "M",
    "MB",
    "ND",
    "MOSAIC"
],
  "ImagingFrequency": 123.259,
  "InPlanePhaseEncodingDirectionDICOM": "COL",
  "InstitutionAddress": "Chemin Queen-Mary 4565,Montreal,District,CA,H3W 1W5",
  "InstitutionName": "IUGM",
  "InstitutionalDepartmentName": "Department",
  "MRAcquisitionType": "2D",
  "MagneticFieldStrength": 3,
  "Manufacturer": "Siemens",
  "ManufacturersModelName": "Prisma_fit",
  "MatrixCoilMode": "SENSE",
  "Modality": "MR",
  "MultibandAccelerationFactor": 4,
  "PartialFourier": 1,
  "PatientPosition": "HFS",
  "PercentPhaseFOV": 100,
  "PercentSampling": 100,
  "PhaseEncodingDirection": "j",
  "PhaseEncodingSteps": 104,
  "PhaseResolution": 1,
  "PixelBandwidth": 2290,
  "ProcedureStepDescription": "localizers^fLoc",
  "ProtocolName": "task_fLoc_run-2",
  "PulseSequenceDetails": "%CustomerSeq%\\cmrr_mbep2d_bold",
  "ReceiveCoilActiveElements": "HC1-7;NC1,2",
  "ReceiveCoilName": "HeadNeck_64",
  "ReconMatrixPE": 104,
  "RepetitionTime": 1.49,
  "SAR": 0.0398393,
  "ScanOptions": "FS",
  "ScanningSequence": "EP",
  "SequenceName": "epfid2d1_104",
  "SequenceVariant": "SK\\SS",
  "SeriesDescription": "task_fLoc_run-2",
  "SeriesNumber": 13,
  "ShimSetting": [620, -7191, -8862, 310, 25, -163, -31, -24],
  "SliceThickness": 2,
  "SliceTiming": [0, 0.7825, 0.0975, 0.8825, 0.195, 0.98, 0.2925, 1.0775, 0.3925, 1.175, 0.49, 1.2725, 0.5875, 1.3725, 0.685, 0, 0.7825, 0.0975, 0.8825, 0.195, 0.98, 0.2925, 1.0775, 0.3925, 1.175, 0.49, 1.2725, 0.5875, 1.3725, 0.685, 0, 0.7825, 0.0975, 0.8825, 0.195, 0.98, 0.2925, 1.0775, 0.3925, 1.175, 0.49, 1.2725, 0.5875, 1.3725, 0.685, 0, 0.7825, 0.0975, 0.8825, 0.195, 0.98, 0.2925, 1.0775, 0.3925, 1.175, 0.49, 1.2725, 0.5875, 1.3725, 0.685],
  "SoftwareVersions": "syngo MR E11",
  "SpacingBetweenSlices": 2,
  "StationName": "MRC35049",
  "TaskName": "fLoc",
  "TotalReadoutTime": 0.0576811,
  "TxRefAmp": 251.677,
  "WipMemBlock": "52443d49-e12a-4d51-be3a-9dade6342652||Sequence: R016 ve11c/master r/e634e98; Dec 19 2017 11:00:25 by eja",
  "dcmmeta_affine": [
    [-1.9991239309310913, 0.02198251523077488, 0.05495906621217728, 104.18390655517578],
    [-0.007773806806653738, 1.743378758430481, -0.9800867438316345, -52.003299713134766],
    [0.058679621666669846, 0.9798710346221924, 1.7425296306610107, -93.73060607910156],
    [0.0, 0.0, 0.0, 1.0]
],
  "dcmmeta_reorient_transform": [
    [0.0, -1.0, 0.0, 103.0],
    [1.0, 0.0, 0.0, 0.0],
    [0.0, 0.0, 1.0, 0.0],
    [0.0, 0.0, 0.0, 1.0]
],
  "dcmmeta_shape": [104, 104, 60, 155],
  "dcmmeta_slice_dim": 2,
  "dcmmeta_version": 0.6,
  "global": {
    "const": {
      "AcquisitionMatrix": [104, 0, 0, 104],
      "AngioFlag": "N",
      "BitsAllocated": 16,
      "BitsStored": 16,
      "BodyPartExamined": "BRAIN",
      "Columns": 832,
      "EchoNumbers": 1,
      "EchoTime": 37.0,
      "EchoTrainLength": 104,
      "FlipAngle": 52.0,
      "HighBit": 15,
      "ImageOrientationPatient": [0.99956193778737, 0.00388690342993, 0.02933981098254, 0.01099125798931, 0.87168938130752, -0.4899355210265],
      "ImagePositionPatient": [-842.13083099542, -764.98424871723, 342.50978587744],
      "ImageType": [
        "ORIGINAL",
        "PRIMARY",
        "M",
        "MB",
        "ND",
        "MOSAIC"
],
      "ImagedNucleus": "1H",
      "ImagingFrequency": 123.258899,
      "InPlanePhaseEncodingDirection": "COL",
      "MRAcquisitionType": "2D",
      "MagneticFieldStrength": 3.0,
      "Manufacturer": "SIEMENS",
      "ManufacturerModelName": "Prisma_fit",
      "Modality": "MR",
      "NumberOfAverages": 1.0,
      "NumberOfPhaseEncodingSteps": 104,
      "PercentPhaseFieldOfView": 100.0,
      "PercentSampling": 100.0,
      "PerformedProcedureStepStartTime": "112451.882000",
      "PhotometricInterpretation": "MONOCHROME2",
      "PixelBandwidth": 2290.0,
      "PixelRepresentation": 0,
      "PixelSpacing": [2.0, 2.0],
      "ProtocolName": "task_fLoc_run-2",
      "RepetitionTime": 1490.0,
      "Rows": 832,
      "SAR": 0.0398393277376,
      "SamplesPerPixel": 1,
      "ScanOptions": "FS",
      "ScanningSequence": "EP",
      "SequenceName": "epfid2d1_104",
      "SequenceVariant": [
        "SK",
        "SS"
],
      "SeriesDescription": "task_fLoc_run-2",
      "SeriesNumber": 13,
      "SeriesTime": "113452.852000",
      "SliceLocation": -53.31738261113,
      "SliceThickness": 2.0,
      "SmallestImagePixelValue": 0,
      "SoftwareVersions": "syngo MR E11",
      "SpacingBetweenSlices": 2.0000000038873,
      "SpecificCharacterSet": "ISO_IR 100",
      "StudyID": "1",
      "StudyTime": "112451.792000",
      "TransmitCoilName": "Body",
      "VariableFlipAngleFlag": "N",
      "WindowCenterWidthExplanation": "Algo1",
      "dBdt": 0.0},
    "slices": {}
  },
  "time": {
    "samples": {
      "AcquisitionNumber": [1, 2, 3, 4, 5, 6, 7, 8, 9, 10, 11, 12, 13, 14, 15, 16, 17, 18, 19, 20, 21, 22, 23, 24, 25, 26, 27, 28, 29, 30, 31, 32, 33, 34, 35, 36, 37, 38, 39, 40, 41, 42, 43, 44, 45, 46, 47, 48, 49, 50, 51, 52, 53, 54, 55, 56, 57, 58, 59, 60, 61, 62, 63, 64, 65, 66, 67, 68, 69, 70, 71, 72, 73, 74, 75, 76, 77, 78, 79, 80, 81, 82, 83, 84, 85, 86, 87, 88, 89, 90, 91, 92, 93, 94, 95, 96, 97, 98, 99, 100, 101, 102, 103, 104, 105, 106, 107, 108, 109, 110, 111, 112, 113, 114, 115, 116, 117, 118, 119, 120, 121, 122, 123, 124, 125, 126, 127, 128, 129, 130, 131, 132, 133, 134, 135, 136, 137, 138, 139, 140, 141, 142, 143, 144, 145, 146, 147, 148, 149, 150, 151, 152, 153, 154, 155],
      "AcquisitionTime": ["113333.605000", "113335.095000", "113336.585000", "113338.075000", "113339.565000", "113341.055000", "113342.545000", "113344.035000", "113345.525000", "113347.015000", "113348.505000", "113349.995000", "113351.485000", "113352.975000", "113354.465000", "113355.955000", "113357.445000", "113358.935000", "113400.425000", "113401.915000", "113403.405000", "113404.895000", "113406.385000", "113407.875000", "113409.365000", "113410.855000", "113412.345000", "113413.835000", "113415.325000", "113416.815000", "113418.305000", "113419.795000", "113421.285000", "113422.775000", "113424.265000", "113425.755000", "113427.245000", "113428.735000", "113430.225000", "113431.715000", "113433.205000", "113434.695000", "113436.185000", "113437.675000", "113439.165000", "113440.655000", "113442.145000", "113443.635000", "113445.125000", "113446.615000", "113448.105000", "113449.595000", "113451.085000", "113452.575000", "113454.065000", "113455.555000", "113457.045000", "113458.535000", "113500.025000", "113501.515000", "113503.005000", "113504.495000", "113505.985000", "113507.475000", "113508.965000", "113510.455000", "113511.945000", "113513.435000", "113514.925000", "113516.415000", "113517.905000", "113519.395000", "113520.885000", "113522.375000", "113523.865000", "113525.355000", "113526.845000", "113528.335000", "113529.825000", "113531.315000", "113532.805000", "113534.295000", "113535.785000", "113537.275000", "113538.765000", "113540.255000", "113541.745000", "113543.235000", "113544.725000", "113546.215000", "113547.705000", "113549.195000", "113550.685000", "113552.175000", "113553.665000", "113555.155000", "113556.645000", "113558.135000", "113559.625000", "113601.115000", "113602.605000", "113604.095000", "113605.585000", "113607.075000", "113608.565000", "113610.055000", "113611.545000", "113613.035000", "113614.525000", "113616.015000", "113617.505000", "113618.995000", "113620.485000", "113621.975000", "113623.465000", "113624.955000", "113626.445000", "113627.935000", "113629.425000", "113630.915000", "113632.405000", "113633.895000", "113635.385000", "113636.875000", "113638.365000", "113639.855000", "113641.345000", "113642.835000", "113644.325000", "113645.815000", "113647.305000", "113648.795000", "113650.285000", "113651.775000", "113653.265000", "113654.755000", "113656.245000", "113657.735000", "113659.225000", "113700.715000", "113702.205000", "113703.695000", "113705.185000", "113706.675000", "113708.165000", "113709.655000", "113711.145000", "113712.635000", "113714.125000", "113715.615000", "113717.105000", "113718.595000", "113720.085000", "113721.575000", "113723.065000"],
      "ContentTime": ["113452.855000", "113452.859000", "113452.863000", "113452.866000", "113452.869000", "113452.872000", "113452.876000", "113452.879000", "113452.882000", "113452.886000", "113452.889000", "113452.892000", "113452.895000", "113452.899000", "113452.902000", "113452.905000", "113452.908000", "113452.912000", "113452.915000", "113452.918000", "113452.921000", "113452.925000", "113452.928000", "113452.931000", "113452.934000", "113452.943000", "113512.817000", "113512.869000", "113512.872000", "113512.876000", "113512.879000", "113512.882000", "113512.885000", "113512.889000", "113512.892000", "113512.895000", "113512.898000", "113512.902000", "113512.905000", "113512.908000", "113512.911000", "113512.915000", "113512.918000", "113512.921000", "113512.924000", "113512.928000", "113532.817000", "113532.821000", "113532.824000", "113532.827000", "113532.831000", "113532.834000", "113532.837000", "113532.840000", "113532.844000", "113532.847000", "113532.850000", "113532.853000", "113532.857000", "113532.860000", "113532.863000", "113532.867000", "113532.870000", "113532.873000", "113532.876000", "113532.880000", "113552.818000", "113552.822000", "113552.825000", "113552.828000", "113552.831000", "113552.835000", "113552.838000", "113552.841000", "113552.845000", "113552.848000", "113552.851000", "113552.854000", "113552.858000", "113552.861000", "113552.864000", "113552.868000", "113552.871000", "113552.874000", "113552.877000", "113552.881000", "113552.884000", "113632.818000", "113632.822000", "113632.825000", "113632.828000", "113632.832000", "113632.835000", "113632.838000", "113632.842000", "113632.845000", "113632.848000", "113632.851000", "113632.860000", "113632.864000", "113632.867000", "113632.870000", "113632.873000", "113632.877000", "113632.880000", "113632.883000", "113632.887000", "113632.890000", "113632.893000", "113632.896000", "113632.905000", "113632.908000", "113632.912000", "113632.915000", "113632.918000", "113632.922000", "113632.925000", "113632.928000", "113632.932000", "113632.935000", "113712.817000", "113712.821000", "113712.824000", "113712.828000", "113712.831000", "113712.834000", "113712.837000", "113712.841000", "113712.845000", "113712.848000", "113712.852000", "113712.855000", "113712.858000", "113712.862000", "113712.865000", "113712.868000", "113712.871000", "113712.875000", "113712.878000", "113712.881000", "113712.885000", "113712.888000", "113712.891000", "113712.894000", "113712.898000", "113712.901000", "113724.954000", "113724.958000", "113724.968000", "113724.971000", "113724.974000", "113724.985000", "113724.988000", "113724.991000", "113724.994000"],
      "InstanceCreationTime": ["113452.855000", "113452.859000", "113452.863000", "113452.866000", "113452.869000", "113452.872000", "113452.876000", "113452.879000", "113452.882000", "113452.886000", "113452.889000", "113452.892000", "113452.895000", "113452.899000", "113452.902000", "113452.905000", "113452.908000", "113452.912000", "113452.915000", "113452.918000", "113452.921000", "113452.925000", "113452.928000", "113452.931000", "113452.934000", "113452.943000", "113512.817000", "113512.869000", "113512.872000", "113512.876000", "113512.879000", "113512.882000", "113512.885000", "113512.889000", "113512.892000", "113512.895000", "113512.898000", "113512.902000", "113512.905000", "113512.908000", "113512.911000", "113512.915000", "113512.918000", "113512.921000", "113512.924000", "113512.928000", "113532.817000", "113532.821000", "113532.824000", "113532.827000", "113532.831000", "113532.834000", "113532.837000", "113532.840000", "113532.844000", "113532.847000", "113532.850000", "113532.853000", "113532.857000", "113532.860000", "113532.863000", "113532.867000", "113532.870000", "113532.873000", "113532.876000", "113532.880000", "113552.818000", "113552.822000", "113552.825000", "113552.828000", "113552.831000", "113552.835000", "113552.838000", "113552.841000", "113552.845000", "113552.848000", "113552.851000", "113552.854000", "113552.858000", "113552.861000", "113552.864000", "113552.868000", "113552.871000", "113552.874000", "113552.877000", "113552.881000", "113552.884000", "113632.818000", "113632.822000", "113632.825000", "113632.828000", "113632.832000", "113632.835000", "113632.838000", "113632.842000", "113632.845000", "113632.848000", "113632.851000", "113632.860000", "113632.864000", "113632.867000", "113632.870000", "113632.873000", "113632.877000", "113632.880000", "113632.883000", "113632.887000", "113632.890000", "113632.893000", "113632.896000", "113632.905000", "113632.908000", "113632.912000", "113632.915000", "113632.918000", "113632.922000", "113632.925000", "113632.928000", "113632.932000", "113632.935000", "113712.817000", "113712.821000", "113712.824000", "113712.828000", "113712.831000", "113712.834000", "113712.837000", "113712.841000", "113712.845000", "113712.848000", "113712.852000", "113712.855000", "113712.858000", "113712.862000", "113712.865000", "113712.868000", "113712.871000", "113712.875000", "113712.878000", "113712.881000", "113712.885000", "113712.888000", "113712.891000", "113712.894000", "113712.898000", "113712.901000", "113724.954000", "113724.958000", "113724.968000", "113724.971000", "113724.974000", "113724.985000", "113724.988000", "113724.991000", "113724.994000"],
      "InstanceNumber": [1, 2, 3, 4, 5, 6, 7, 8, 9, 10, 11, 12, 13, 14, 15, 16, 17, 18, 19, 20, 21, 22, 23, 24, 25, 26, 27, 28, 29, 30, 31, 32, 33, 34, 35, 36, 37, 38, 39, 40, 41, 42, 43, 44, 45, 46, 47, 48, 49, 50, 51, 52, 53, 54, 55, 56, 57, 58, 59, 60, 61, 62, 63, 64, 65, 66, 67, 68, 69, 70, 71, 72, 73, 74, 75, 76, 77, 78, 79, 80, 81, 82, 83, 84, 85, 86, 87, 88, 89, 90, 91, 92, 93, 94, 95, 96, 97, 98, 99, 100, 101, 102, 103, 104, 105, 106, 107, 108, 109, 110, 111, 112, 113, 114, 115, 116, 117, 118, 119, 120, 121, 122, 123, 124, 125, 126, 127, 128, 129, 130, 131, 132, 133, 134, 135, 136, 137, 138, 139, 140, 141, 142, 143, 144, 145, 146, 147, 148, 149, 150, 151, 152, 153, 154, 155],
      "LargestImagePixelValue": [46489, 45519, 44777, 44559, 44280, 44143, 44654, 44361, 44556, 44461, 43942, 44121, 43500, 44169, 43430, 43187, 43695, 43621, 44287, 44162, 43912, 43677, 43989, 43186, 43456, 43242, 43465, 43207, 43950, 43812, 44421, 44494, 44325, 44014, 43645, 43450, 42780, 43511, 43737, 44545, 43985, 43734, 43506, 43838, 43435, 44297, 42030, 42961, 43534, 43711, 44149, 43592, 43223, 42683, 43611, 43939, 44284, 44836, 44042, 44003, 44462, 44079, 44010, 43830, 44183, 43902, 42458, 42447, 44632, 43437, 42422, 42851, 43471, 42805, 43258, 43737, 43405, 43583, 43911, 42799, 44053, 43351, 42550, 42954, 43302, 43212, 43129, 42102, 43527, 43236, 42348, 43384, 42979, 42196, 43349, 43846, 43918, 43593, 42452, 42892, 43086, 43295, 43760, 43728, 43435, 42902, 42985, 43544, 41173, 43271, 42975, 42925, 43329, 43541, 42972, 42606, 43365, 43065, 42975, 42938, 43040, 43006, 43585, 42800, 43587, 42938, 43410, 43448, 43018, 43431, 42797, 42299, 43841, 42493, 42584, 43090, 43595, 43562, 43094, 42965, 43141, 43317, 44019, 43478, 43469, 43673, 43299, 42986, 43319, 43078, 42325, 42251, 43709, 43618, 43425],
      "WindowCenter": [10824.0, 10776.0, 10770.0, 10791.0, 10786.0, 10773.0, 10768.0, 10766.0, 10761.0, 10760.0, 10755.0, 10754.0, 10750.0, 10755.0, 10730.0, 10730.0, 10761.0, 10764.0, 10743.0, 10732.0, 10727.0, 10749.0, 10786.0, 10768.0, 10758.0, 10752.0, 10758.0, 10751.0, 10745.0, 10740.0, 10732.0, 10718.0, 10714.0, 10726.0, 10743.0, 10765.0, 10744.0, 10753.0, 10753.0, 10740.0, 10721.0, 10712.0, 10723.0, 10739.0, 10756.0, 10775.0, 10743.0, 10760.0, 10762.0, 10740.0, 10723.0, 10704.0, 10707.0, 10710.0, 10732.0, 10725.0, 10709.0, 10698.0, 10693.0, 10712.0, 10738.0, 10742.0, 10736.0, 10734.0, 10741.0, 10734.0, 10742.0, 10762.0, 10802.0, 10770.0, 10721.0, 10702.0, 10704.0, 10709.0, 10727.0, 10735.0, 10730.0, 10722.0, 10725.0, 10707.0, 10740.0, 10729.0, 10691.0, 10684.0, 10704.0, 10715.0, 10754.0, 10773.0, 10781.0, 10760.0, 10733.0, 10747.0, 10738.0, 10705.0, 10691.0, 10682.0, 10697.0, 10720.0, 10726.0, 10728.0, 10723.0, 10715.0, 10722.0, 10728.0, 10721.0, 10718.0, 10703.0, 10716.0, 10722.0, 10776.0, 10781.0, 10756.0, 10743.0, 10752.0, 10747.0, 10738.0, 10723.0, 10721.0, 10726.0, 10709.0, 10715.0, 10723.0, 10723.0, 10707.0, 10710.0, 10707.0, 10721.0, 10721.0, 10734.0, 10753.0, 10741.0, 10737.0, 10766.0, 10758.0, 10733.0, 10721.0, 10724.0, 10722.0, 10733.0, 10738.0, 10739.0, 10731.0, 10740.0, 10725.0, 10724.0, 10728.0, 10735.0, 10735.0, 10732.0, 10736.0, 10724.0, 10739.0, 10775.0, 10767.0, 10736.0],
      "WindowWidth": [23213.0, 23071.0, 23035.0, 23074.0, 23062.0, 23026.0, 23011.0, 23005.0, 22996.0, 22994.0, 22984.0, 22981.0, 22976.0, 22987.0, 22936.0, 22933.0, 23002.0, 23017.0, 22964.0, 22935.0, 22921.0, 22970.0, 23054.0, 23020.0, 22992.0, 22978.0, 22991.0, 22976.0, 22962.0, 22954.0, 22936.0, 22901.0, 22889.0, 22915.0, 22957.0, 23005.0, 22965.0, 22980.0, 22980.0, 22951.0, 22909.0, 22889.0, 22913.0, 22947.0, 22987.0, 23028.0, 22962.0, 22991.0, 22999.0, 22950.0, 22908.0, 22870.0, 22877.0, 22884.0, 22927.0, 22913.0, 22874.0, 22846.0, 22840.0, 22883.0, 22942.0, 22952.0, 22939.0, 22933.0, 22948.0, 22934.0, 22955.0, 23001.0, 23098.0, 23022.0, 22919.0, 22871.0, 22869.0, 22883.0, 22922.0, 22935.0, 22921.0, 22904.0, 22908.0, 22877.0, 22944.0, 22929.0, 22851.0, 22831.0, 22869.0, 22898.0, 22980.0, 23024.0, 23036.0, 22990.0, 22934.0, 22959.0, 22947.0, 22879.0, 22843.0, 22819.0, 22848.0, 22899.0, 22919.0, 22922.0, 22906.0, 22889.0, 22906.0, 22920.0, 22907.0, 22911.0, 22874.0, 22894.0, 22915.0, 23027.0, 23044.0, 22987.0, 22956.0, 22977.0, 22969.0, 22949.0, 22913.0, 22905.0, 22917.0, 22882.0, 22893.0, 22911.0, 22908.0, 22876.0, 22878.0, 22875.0, 22904.0, 22906.0, 22935.0, 22978.0, 22953.0, 22942.0, 23003.0, 22991.0, 22937.0, 22906.0, 22910.0, 22906.0, 22930.0, 22945.0, 22942.0, 22925.0, 22940.0, 22913.0, 22914.0, 22919.0, 22941.0, 22941.0, 22929.0, 22939.0, 22916.0, 22945.0, 23021.0, 23004.0, 22943.0]
    },
    "slices": {}
  }
}