{
  "AcquisitionMatrixPE": 104,
  "AcquisitionNumber": 1,
  "AcquisitionTime": "11:28:19.795000",
  "BandwidthPerPixelPhaseEncode": 17.17,
  "BaseResolution": 104,
  "BodyPartExamined": "BRAIN",
  "CoilCombinationMethod": "Sum of Squares",
  "ConsistencyInfo": "N4_VE11C_LATEST_20160120",
  "ConversionSoftware": "dcm2niix",
  "ConversionSoftwareVersion": "v1.0.20211006",
  "DerivedVendorReportedEchoSpacing": 0.000560011,
  "DeviceSerialNumber": "167006",
  "DwellTime": 2.1e-06,
  "EchoTime": 0.037,
  "EchoTime1": 0.037,
  "EchoTime2": 0.001,
  "EchoTrainLength": 104,
  "EffectiveEchoSpacing": 0.000560011,
  "FlipAngle": 52,
  "HeudiconvVersion": "0.10.0",
  "ImageComments": "Unaliased MB4/PE3/LB",
  "ImageOrientationPatientDICOM": [0.999562, 0.0038869, 0.0293398, 0.0109913, 0.871689, -0.489936],
  "ImageOrientationText": "Tra>Cor(-29.4)>Sag(1.6)",
  "ImageType": [
    "ORIGINAL",
    "PRIMARY",
    "P",
    "MB",
    "ND",
    "MOSAIC",
    "PHASE"
],
  "ImagingFrequency": 123.259,
  "InPlanePhaseEncodingDirectionDICOM": "COL",
  "InstitutionAddress": "Chemin Queen-Mary 4565,Montreal,District,CA,H3W 1W5",
  "InstitutionName": "IUGM",
  "InstitutionalDepartmentName": "Department",
  "MRAcquisitionType": "2D",
  "MagneticFieldStrength": 3,
  "Manufacturer": "Siemens",
  "ManufacturersModelName": "Prisma_fit",
  "MatrixCoilMode": "SENSE",
  "Modality": "MR",
  "MultibandAccelerationFactor": 4,
  "PartialFourier": 1,
  "PatientPosition": "HFS",
  "PercentPhaseFOV": 100,
  "PercentSampling": 100,
  "PhaseEncodingDirection": "j",
  "PhaseEncodingSteps": 104,
  "PhaseResolution": 1,
  "PixelBandwidth": 2290,
  "ProcedureStepDescription": "localizers^fLoc",
  "ProtocolName": "task_fLoc_run-1",
  "PulseSequenceDetails": "%CustomerSeq%\\cmrr_mbep2d_bold",
  "ReceiveCoilActiveElements": "HC1-7;NC1,2",
  "ReceiveCoilName": "HeadNeck_64",
  "ReconMatrixPE": 104,
  "RepetitionTime": 1.49,
  "SAR": 0.0398393,
  "ScanOptions": "FS",
  "ScanningSequence": "EP",
  "SequenceName": "epfid2d1_104",
  "SequenceVariant": "SK\\SS",
  "SeriesDescription": "task_fLoc_run-1",
  "SeriesNumber": 11,
  "ShimSetting": [620, -7191, -8862, 310, 25, -163, -31, -24],
  "SliceThickness": 2,
  "SliceTiming": [0, 0.785, 0.0975, 0.8825, 0.1975, 0.98, 0.295, 1.0775, 0.3925, 1.1775, 0.49, 1.275, 0.5875, 1.3725, 0.6875, 0, 0.785, 0.0975, 0.8825, 0.1975, 0.98, 0.295, 1.0775, 0.3925, 1.1775, 0.49, 1.275, 0.5875, 1.3725, 0.6875, 0, 0.785, 0.0975, 0.8825, 0.1975, 0.98, 0.295, 1.0775, 0.3925, 1.1775, 0.49, 1.275, 0.5875, 1.3725, 0.6875, 0, 0.785, 0.0975, 0.8825, 0.1975, 0.98, 0.295, 1.0775, 0.3925, 1.1775, 0.49, 1.275, 0.5875, 1.3725, 0.6875],
  "SoftwareVersions": "syngo MR E11",
  "SpacingBetweenSlices": 2,
  "StationName": "MRC35049",
  "TaskName": "fLoc",
  "TotalReadoutTime": 0.0576811,
  "TxRefAmp": 251.677,
  "WipMemBlock": "d940afac-f7ea-4467-a627-9994c8a60e1e||Sequence: R016 ve11c/master r/e634e98; Dec 19 2017 11:00:25 by eja",
  "dcmmeta_affine": [
    [-1.9991239309310913, 0.02198251523077488, 0.05495906621217728, 104.18390655517578],
    [-0.007773806806653738, 1.743378758430481, -0.9800867438316345, -52.003299713134766],
    [0.058679621666669846, 0.9798710346221924, 1.7425296306610107, -93.73060607910156],
    [0.0, 0.0, 0.0, 1.0]
],
  "dcmmeta_reorient_transform": [
    [0.0, -1.0, 0.0, 103.0],
    [1.0, 0.0, 0.0, 0.0],
    [0.0, 0.0, 1.0, 0.0],
    [0.0, 0.0, 0.0, 1.0]
],
  "dcmmeta_shape": [104, 104, 60, 155],
  "dcmmeta_slice_dim": 2,
  "dcmmeta_version": 0.6,
  "global": {
    "const": {
      "AcquisitionMatrix": [104, 0, 0, 104],
      "AngioFlag": "N",
      "BitsAllocated": 16,
      "BitsStored": 16,
      "BodyPartExamined": "BRAIN",
      "Columns": 832,
      "EchoNumbers": 1,
      "EchoTime": 37.0,
      "EchoTrainLength": 104,
      "FlipAngle": 52.0,
      "HighBit": 15,
      "ImageOrientationPatient": [0.99956193778737, 0.00388690342993, 0.02933981098254, 0.01099125798931, 0.87168938130752, -0.4899355210265],
      "ImagePositionPatient": [-842.13083099542, -764.98424871723, 342.50978587744],
      "ImageType": [
        "ORIGINAL",
        "PRIMARY",
        "P",
        "MB",
        "ND",
        "MOSAIC"
],
      "ImagedNucleus": "1H",
      "ImagingFrequency": 123.258895,
      "InPlanePhaseEncodingDirection": "COL",
      "LargestImagePixelValue": 4095,
      "MRAcquisitionType": "2D",
      "MagneticFieldStrength": 3.0,
      "Manufacturer": "SIEMENS",
      "ManufacturerModelName": "Prisma_fit",
      "Modality": "MR",
      "NumberOfAverages": 1.0,
      "NumberOfPhaseEncodingSteps": 104,
      "PercentPhaseFieldOfView": 100.0,
      "PercentSampling": 100.0,
      "PerformedProcedureStepStartTime": "112451.882000",
      "PhotometricInterpretation": "MONOCHROME2",
      "PixelBandwidth": 2290.0,
      "PixelRepresentation": 0,
      "PixelSpacing": [2.0, 2.0],
      "ProtocolName": "task_fLoc_run-1",
      "RepetitionTime": 1490.0,
      "RescaleIntercept": -4096.0,
      "RescaleSlope": 2.0,
      "RescaleType": "US",
      "Rows": 832,
      "SAR": 0.0398393277376,
      "SamplesPerPixel": 1,
      "ScanOptions": "FS",
      "ScanningSequence": "EP",
      "SequenceName": "epfid2d1_104",
      "SequenceVariant": [
        "SK",
        "SS"
],
      "SeriesDescription": "task_fLoc_run-1",
      "SeriesNumber": 11,
      "SeriesTime": "112954.772000",
      "SliceLocation": -53.31738261113,
      "SliceThickness": 2.0,
      "SmallestImagePixelValue": 0,
      "SoftwareVersions": "syngo MR E11",
      "SpacingBetweenSlices": 2.0000000038873,
      "SpecificCharacterSet": "ISO_IR 100",
      "StudyID": "1",
      "StudyTime": "112451.792000",
      "TransmitCoilName": "Body",
      "VariableFlipAngleFlag": "N",
      "WindowCenterWidthExplanation": "Algo1",
      "dBdt": 0.0},
    "slices": {}
  },
  "time": {
    "samples": {
      "AcquisitionNumber": [1, 2, 3, 4, 5, 6, 7, 8, 9, 10, 11, 12, 13, 14, 15, 16, 17, 18, 19, 20, 21, 22, 23, 24, 25, 26, 27, 28, 29, 30, 31, 32, 33, 34, 35, 36, 37, 38, 39, 40, 41, 42, 43, 44, 45, 46, 47, 48, 49, 50, 51, 52, 53, 54, 55, 56, 57, 58, 59, 60, 61, 62, 63, 64, 65, 66, 67, 68, 69, 70, 71, 72, 73, 74, 75, 76, 77, 78, 79, 80, 81, 82, 83, 84, 85, 86, 87, 88, 89, 90, 91, 92, 93, 94, 95, 96, 97, 98, 99, 100, 101, 102, 103, 104, 105, 106, 107, 108, 109, 110, 111, 112, 113, 114, 115, 116, 117, 118, 119, 120, 121, 122, 123, 124, 125, 126, 127, 128, 129, 130, 131, 132, 133, 134, 135, 136, 137, 138, 139, 140, 141, 142, 143, 144, 145, 146, 147, 148, 149, 150, 151, 152, 153, 154, 155],
      "AcquisitionTime": ["112819.795000", "112821.285000", "112822.775000", "112824.265000", "112825.755000", "112827.245000", "112828.735000", "112830.225000", "112831.715000", "112833.205000", "112834.695000", "112836.185000", "112837.675000", "112839.165000", "112840.655000", "112842.145000", "112843.635000", "112845.125000", "112846.615000", "112848.105000", "112849.595000", "112851.085000", "112852.575000", "112854.065000", "112855.555000", "112857.045000", "112858.535000", "112900.025000", "112901.515000", "112903.005000", "112904.495000", "112905.985000", "112907.475000", "112908.965000", "112910.455000", "112911.945000", "112913.435000", "112914.925000", "112916.415000", "112917.905000", "112919.395000", "112920.885000", "112922.375000", "112923.865000", "112925.355000", "112926.845000", "112928.335000", "112929.825000", "112931.315000", "112932.805000", "112934.295000", "112935.785000", "112937.275000", "112938.765000", "112940.255000", "112941.745000", "112943.235000", "112944.725000", "112946.215000", "112947.705000", "112949.195000", "112950.685000", "112952.175000", "112953.665000", "112955.155000", "112956.645000", "112958.135000", "112959.625000", "113001.115000", "113002.605000", "113004.095000", "113005.585000", "113007.075000", "113008.565000", "113010.055000", "113011.545000", "113013.035000", "113014.525000", "113016.015000", "113017.505000", "113018.995000", "113020.485000", "113021.975000", "113023.465000", "113024.955000", "113026.445000", "113027.935000", "113029.425000", "113030.915000", "113032.405000", "113033.895000", "113035.385000", "113036.875000", "113038.365000", "113039.855000", "113041.345000", "113042.835000", "113044.325000", "113045.815000", "113047.305000", "113048.795000", "113050.285000", "113051.775000", "113053.265000", "113054.755000", "113056.245000", "113057.735000", "113059.225000", "113100.715000", "113102.205000", "113103.695000", "113105.185000", "113106.675000", "113108.165000", "113109.655000", "113111.145000", "113112.635000", "113114.125000", "113115.615000", "113117.105000", "113118.595000", "113120.085000", "113121.575000", "113123.065000", "113124.555000", "113126.045000", "113127.535000", "113129.025000", "113130.515000", "113132.005000", "113133.495000", "113134.985000", "113136.475000", "113137.965000", "113139.455000", "113140.945000", "113142.435000", "113143.925000", "113145.415000", "113146.905000", "113148.395000", "113149.885000", "113151.375000", "113152.865000", "113154.355000", "113155.845000", "113157.335000", "113158.825000", "113200.315000", "113201.805000", "113203.295000", "113204.785000", "113206.275000", "113207.765000", "113209.255000"],
      "ContentTime": ["112954.774000", "112954.777000", "112954.779000", "112954.786000", "112954.789000", "112954.791000", "112954.794000", "112954.796000", "112954.799000", "112954.801000", "112954.803000", "112954.806000", "112954.808000", "112954.811000", "112954.813000", "112954.816000", "112954.818000", "112954.821000", "112954.824000", "112954.827000", "112954.830000", "112954.834000", "112954.837000", "112954.839000", "112954.842000", "112954.845000", "112954.848000", "112954.850000", "112954.853000", "112954.856000", "112954.858000", "112954.861000", "112954.863000", "112954.866000", "112954.868000", "112954.871000", "112954.873000", "112954.876000", "112954.878000", "113014.657000", "113014.660000", "113014.662000", "113014.665000", "113014.668000", "113014.670000", "113014.673000", "113014.675000", "113014.678000", "113014.680000", "113014.683000", "113014.685000", "113014.688000", "113014.690000", "113014.693000", "113014.695000", "113014.698000", "113014.701000", "113014.703000", "113014.705000", "113034.661000", "113034.664000", "113034.667000", "113034.670000", "113034.672000", "113034.675000", "113034.678000", "113034.680000", "113034.682000", "113034.685000", "113034.688000", "113034.690000", "113034.693000", "113034.695000", "113034.697000", "113034.700000", "113034.702000", "113034.705000", "113034.707000", "113034.714000", "113034.717000", "113055.129000", "113055.132000", "113055.135000", "113055.137000", "113055.140000", "113055.143000", "113055.145000", "113055.148000", "113055.150000", "113055.153000", "113055.155000", "113055.157000", "113055.160000", "113055.162000", "113055.165000", "113055.167000", "113055.170000", "113055.172000", "113055.175000", "113055.177000", "113134.716000", "113134.719000", "113134.721000", "113134.724000", "113134.726000", "113134.729000", "113134.731000", "113134.734000", "113134.736000", "113134.739000", "113134.741000", "113134.744000", "113134.746000", "113134.749000", "113134.751000", "113134.754000", "113134.756000", "113134.759000", "113134.761000", "113134.764000", "113134.767000", "113134.769000", "113134.772000", "113134.775000", "113134.777000", "113134.780000", "113134.783000", "113134.785000", "113134.788000", "113134.791000", "113211.588000", "113211.591000", "113211.594000", "113211.596000", "113211.599000", "113211.602000", "113211.605000", "113211.608000", "113211.611000", "113211.613000", "113211.616000", "113211.619000", "113211.622000", "113211.625000", "113211.628000", "113211.631000", "113211.633000", "113211.636000", "113211.640000", "113211.642000", "113211.645000", "113211.647000", "113211.650000", "113211.653000", "113211.656000"],
      "InstanceCreationTime": ["112954.774000", "112954.777000", "112954.779000", "112954.786000", "112954.789000", "112954.791000", "112954.794000", "112954.796000", "112954.799000", "112954.801000", "112954.803000", "112954.806000", "112954.808000", "112954.811000", "112954.813000", "112954.816000", "112954.818000", "112954.821000", "112954.824000", "112954.827000", "112954.830000", "112954.834000", "112954.837000", "112954.839000", "112954.842000", "112954.845000", "112954.848000", "112954.850000", "112954.853000", "112954.856000", "112954.858000", "112954.861000", "112954.863000", "112954.866000", "112954.868000", "112954.871000", "112954.873000", "112954.876000", "112954.878000", "113014.657000", "113014.660000", "113014.662000", "113014.665000", "113014.668000", "113014.670000", "113014.673000", "113014.675000", "113014.678000", "113014.680000", "113014.683000", "113014.685000", "113014.688000", "113014.690000", "113014.693000", "113014.695000", "113014.698000", "113014.701000", "113014.703000", "113014.705000", "113034.661000", "113034.664000", "113034.667000", "113034.670000", "113034.672000", "113034.675000", "113034.678000", "113034.680000", "113034.682000", "113034.685000", "113034.688000", "113034.690000", "113034.693000", "113034.695000", "113034.697000", "113034.700000", "113034.702000", "113034.705000", "113034.707000", "113034.714000", "113034.717000", "113055.129000", "113055.132000", "113055.135000", "113055.137000", "113055.140000", "113055.143000", "113055.145000", "113055.148000", "113055.150000", "113055.153000", "113055.155000", "113055.157000", "113055.160000", "113055.162000", "113055.165000", "113055.167000", "113055.170000", "113055.172000", "113055.175000", "113055.177000", "113134.716000", "113134.719000", "113134.721000", "113134.724000", "113134.726000", "113134.729000", "113134.731000", "113134.734000", "113134.736000", "113134.739000", "113134.741000", "113134.744000", "113134.746000", "113134.749000", "113134.751000", "113134.754000", "113134.756000", "113134.759000", "113134.761000", "113134.764000", "113134.767000", "113134.769000", "113134.772000", "113134.775000", "113134.777000", "113134.780000", "113134.783000", "113134.785000", "113134.788000", "113134.791000", "113211.588000", "113211.591000", "113211.594000", "113211.596000", "113211.599000", "113211.602000", "113211.605000", "113211.608000", "113211.611000", "113211.613000", "113211.616000", "113211.619000", "113211.622000", "113211.625000", "113211.628000", "113211.631000", "113211.633000", "113211.636000", "113211.640000", "113211.642000", "113211.645000", "113211.647000", "113211.650000", "113211.653000", "113211.656000"],
      "InstanceNumber": [1, 2, 3, 4, 5, 6, 7, 8, 9, 10, 11, 12, 13, 14, 15, 16, 17, 18, 19, 20, 21, 22, 23, 24, 25, 26, 27, 28, 29, 30, 31, 32, 33, 34, 35, 36, 37, 38, 39, 40, 41, 42, 43, 44, 45, 46, 47, 48, 49, 50, 51, 52, 53, 54, 55, 56, 57, 58, 59, 60, 61, 62, 63, 64, 65, 66, 67, 68, 69, 70, 71, 72, 73, 74, 75, 76, 77, 78, 79, 80, 81, 82, 83, 84, 85, 86, 87, 88, 89, 90, 91, 92, 93, 94, 95, 96, 97, 98, 99, 100, 101, 102, 103, 104, 105, 106, 107, 108, 109, 110, 111, 112, 113, 114, 115, 116, 117, 118, 119, 120, 121, 122, 123, 124, 125, 126, 127, 128, 129, 130, 131, 132, 133, 134, 135, 136, 137, 138, 139, 140, 141, 142, 143, 144, 145, 146, 147, 148, 149, 150, 151, 152, 153, 154, 155],
      "WindowCenter": [4800.0, 4800.0, 4798.0, 4800.0, 4804.0, 4782.0, 4800.0, 4774.0, 4774.0, 4796.0, 4800.0, 4798.0, 4796.0, 4796.0, 4806.0, 4784.0, 4802.0, 4802.0, 4796.0, 4796.0, 4798.0, 4796.0, 4796.0, 4794.0, 4798.0, 4798.0, 4798.0, 4796.0, 4802.0, 4798.0, 4800.0, 4802.0, 4780.0, 4776.0, 4772.0, 4796.0, 4798.0, 4796.0, 4794.0, 4796.0, 4796.0, 4804.0, 4800.0, 4796.0, 4800.0, 4796.0, 4794.0, 4794.0, 4796.0, 4792.0, 4794.0, 4794.0, 4798.0, 4800.0, 4800.0, 4800.0, 4800.0, 4796.0, 4796.0, 4800.0, 4778.0, 4774.0, 4792.0, 4794.0, 4796.0, 4798.0, 4776.0, 4776.0, 4798.0, 4798.0, 4796.0, 4798.0, 4794.0, 4800.0, 4798.0, 4800.0, 4798.0, 4798.0, 4796.0, 4798.0, 4800.0, 4796.0, 4798.0, 4802.0, 4794.0, 4798.0, 4796.0, 4796.0, 4798.0, 4798.0, 4796.0, 4794.0, 4794.0, 4796.0, 4800.0, 4822.0, 4800.0, 4798.0, 4780.0, 4800.0, 4800.0, 4798.0, 4798.0, 4796.0, 4798.0, 4800.0, 4794.0, 4796.0, 4800.0, 4798.0, 4798.0, 4798.0, 4796.0, 4772.0, 4796.0, 4798.0, 4800.0, 4800.0, 4800.0, 4802.0, 4804.0, 4798.0, 4798.0, 4796.0, 4796.0, 4798.0, 4798.0, 4800.0, 4800.0, 4800.0, 4800.0, 4802.0, 4800.0, 4800.0, 4798.0, 4798.0, 4800.0, 4798.0, 4798.0, 4798.0, 4798.0, 4800.0, 4804.0, 4802.0, 4798.0, 4800.0, 4798.0, 4798.0, 4798.0, 4796.0, 4800.0, 4800.0, 4808.0, 4824.0, 4822.0],
      "WindowWidth": [18622.0, 18620.0, 18618.0, 18622.0, 18620.0, 18592.0, 18618.0, 18582.0, 18584.0, 18618.0, 18618.0, 18618.0, 18616.0, 18622.0, 18622.0, 18592.0, 18624.0, 18620.0, 18620.0, 18620.0, 18620.0, 18618.0, 18614.0, 18610.0, 18616.0, 18616.0, 18622.0, 18614.0, 18626.0, 18620.0, 18626.0, 18622.0, 18588.0, 18590.0, 18584.0, 18614.0, 18608.0, 18610.0, 18612.0, 18624.0, 18624.0, 18628.0, 18628.0, 18624.0, 18624.0, 18620.0, 18616.0, 18616.0, 18616.0, 18614.0, 18612.0, 18616.0, 18620.0, 18620.0, 18622.0, 18620.0, 18626.0, 18618.0, 18618.0, 18618.0, 18582.0, 18586.0, 18612.0, 18614.0, 18618.0, 18620.0, 18592.0, 18588.0, 18624.0, 18628.0, 18622.0, 18624.0, 18620.0, 18632.0, 18628.0, 18626.0, 18622.0, 18626.0, 18626.0, 18626.0, 18628.0, 18622.0, 18626.0, 18628.0, 18622.0, 18622.0, 18626.0, 18622.0, 18620.0, 18620.0, 18624.0, 18624.0, 18620.0, 18620.0, 18624.0, 18656.0, 18628.0, 18624.0, 18596.0, 18628.0, 18626.0, 18622.0, 18620.0, 18620.0, 18620.0, 18626.0, 18624.0, 18624.0, 18626.0, 18626.0, 18624.0, 18626.0, 18624.0, 18588.0, 18622.0, 18616.0, 18622.0, 18624.0, 18630.0, 18630.0, 18630.0, 18624.0, 18626.0, 18620.0, 18616.0, 18620.0, 18620.0, 18618.0, 18624.0, 18630.0, 18628.0, 18628.0, 18622.0, 18630.0, 18622.0, 18624.0, 18622.0, 18618.0, 18622.0, 18618.0, 18624.0, 18630.0, 18626.0, 18626.0, 18626.0, 18624.0, 18626.0, 18618.0, 18624.0, 18620.0, 18620.0, 18622.0, 18628.0, 18602.0, 18606.0]
    },
    "slices": {}
  }
}