{
  "AcquisitionMatrixPE": 104,
  "AcquisitionNumber": 1,
  "AcquisitionTime": "14:03:35.987500",
  "BandwidthPerPixelPhaseEncode": 17.17,
  "BaseResolution": 104,
  "BodyPartExamined": "BRAIN",
  "CoilCombinationMethod": "Sum of Squares",
  "ConsistencyInfo": "N4_VE11C_LATEST_20160120",
  "ConversionSoftware": "dcm2niix",
  "ConversionSoftwareVersion": "v1.0.20211006",
  "DerivedVendorReportedEchoSpacing": 0.000560011,
  "DeviceSerialNumber": "167006",
  "DwellTime": 2.1e-06,
  "EchoTime": 0.037,
  "EchoTime1": 0.037,
  "EchoTime2": 0.001,
  "EchoTrainLength": 104,
  "EffectiveEchoSpacing": 0.000560011,
  "FlipAngle": 52,
  "HeudiconvVersion": "0.10.0",
  "ImageComments": "Unaliased MB4/PE3/LB",
  "ImageOrientationPatientDICOM": [0.998322, 0.00922394, 0.0571712, 0.00644696, 0.963395, -0.26801],
  "ImageOrientationText": "Tra>Cor(-15.6)>Sag(3.3)",
  "ImageType": [
    "ORIGINAL",
    "PRIMARY",
    "P",
    "MB",
    "ND",
    "MOSAIC",
    "PHASE"
],
  "ImagingFrequency": 123.259,
  "InPlanePhaseEncodingDirectionDICOM": "COL",
  "InstitutionAddress": "Chemin Queen-Mary 4565,Montreal,District,CA,H3W 1W5",
  "InstitutionName": "IUGM",
  "InstitutionalDepartmentName": "Department",
  "MRAcquisitionType": "2D",
  "MagneticFieldStrength": 3,
  "Manufacturer": "Siemens",
  "ManufacturersModelName": "Prisma_fit",
  "MatrixCoilMode": "SENSE",
  "Modality": "MR",
  "MultibandAccelerationFactor": 4,
  "PartialFourier": 1,
  "PatientPosition": "HFS",
  "PercentPhaseFOV": 100,
  "PercentSampling": 100,
  "PhaseEncodingDirection": "j",
  "PhaseEncodingSteps": 104,
  "PhaseResolution": 1,
  "PixelBandwidth": 2290,
  "ProcedureStepDescription": "localizers^fLoc",
  "ProtocolName": "task_fLoc_run-2",
  "PulseSequenceDetails": "%CustomerSeq%\\cmrr_mbep2d_bold",
  "ReceiveCoilActiveElements": "HC1-7;NC1,2",
  "ReceiveCoilName": "HeadNeck_64",
  "ReconMatrixPE": 104,
  "RepetitionTime": 1.49,
  "SAR": 0.0509303,
  "ScanOptions": "FS",
  "ScanningSequence": "EP",
  "SequenceName": "epfid2d1_104",
  "SequenceVariant": "SK\\SS",
  "SeriesDescription": "task_fLoc_run-2",
  "SeriesNumber": 17,
  "ShimSetting": [652, -7205, -8795, 695, 92, 25, 40, 3],
  "SliceThickness": 2,
  "SliceTiming": [0, 0.785, 0.0975, 0.8825, 0.195, 0.98, 0.295, 1.0775, 0.3925, 1.175, 0.49, 1.275, 0.5875, 1.3725, 0.685, 0, 0.785, 0.0975, 0.8825, 0.195, 0.98, 0.295, 1.0775, 0.3925, 1.175, 0.49, 1.275, 0.5875, 1.3725, 0.685, 0, 0.785, 0.0975, 0.8825, 0.195, 0.98, 0.295, 1.0775, 0.3925, 1.175, 0.49, 1.275, 0.5875, 1.3725, 0.685, 0, 0.785, 0.0975, 0.8825, 0.195, 0.98, 0.295, 1.0775, 0.3925, 1.175, 0.49, 1.275, 0.5875, 1.3725, 0.685],
  "SoftwareVersions": "syngo MR E11",
  "SpacingBetweenSlices": 2,
  "StationName": "MRC35049",
  "TaskName": "fLoc",
  "TotalReadoutTime": 0.0576811,
  "TxRefAmp": 234.67,
  "WipMemBlock": "28379e2e-29f7-4b99-9c1d-8cdf882fdfec||Sequence: R016 ve11c/master r/e634e98; Dec 19 2017 11:00:25 by eja",
  "dcmmeta_affine": [
    [-1.9966435432434082, 0.012893928214907646, 0.11510112136602402, 105.26559448242188],
    [-0.018447889015078545, 1.9267892837524414, -0.5358569622039795, -72.78309631347656],
    [0.11434245854616165, 0.5360193848609924, 1.9234367609024048, -66.90162658691406],
    [0.0, 0.0, 0.0, 1.0]
],
  "dcmmeta_reorient_transform": [
    [0.0, -1.0, 0.0, 103.0],
    [1.0, 0.0, 0.0, 0.0],
    [0.0, 0.0, 1.0, 0.0],
    [0.0, 0.0, 0.0, 1.0]
],
  "dcmmeta_shape": [104, 104, 60, 155],
  "dcmmeta_slice_dim": 2,
  "dcmmeta_version": 0.6,
  "global": {
    "const": {
      "AcquisitionMatrix": [104, 0, 0, 104],
      "AngioFlag": "N",
      "BitsAllocated": 16,
      "BitsStored": 16,
      "BodyPartExamined": "BRAIN",
      "Columns": 832,
      "EchoNumbers": 1,
      "EchoTime": 37.0,
      "EchoTrainLength": 104,
      "FlipAngle": 52.0,
      "HighBit": 15,
      "ImageOrientationPatient": [0.99832177655737, 0.00922394427127, 0.05717122793346, 0.00644696390091, 0.96339464583446, -0.2680096883211],
      "ImagePositionPatient": [-838.06531530691, -833.74253743611, 141.79876740798],
      "ImageType": [
        "ORIGINAL",
        "PRIMARY",
        "P",
        "MB",
        "ND",
        "MOSAIC"
],
      "ImagedNucleus": "1H",
      "ImagingFrequency": 123.258911,
      "InPlanePhaseEncodingDirection": "COL",
      "LargestImagePixelValue": 4095,
      "MRAcquisitionType": "2D",
      "MagneticFieldStrength": 3.0,
      "Manufacturer": "SIEMENS",
      "ManufacturerModelName": "Prisma_fit",
      "Modality": "MR",
      "NumberOfAverages": 1.0,
      "NumberOfPhaseEncodingSteps": 104,
      "PercentPhaseFieldOfView": 100.0,
      "PercentSampling": 100.0,
      "PerformedProcedureStepStartTime": "135215.559000",
      "PhotometricInterpretation": "MONOCHROME2",
      "PixelBandwidth": 2290.0,
      "PixelRepresentation": 0,
      "PixelSpacing": [2.0, 2.0],
      "ProtocolName": "task_fLoc_run-2",
      "RepetitionTime": 1490.0,
      "RescaleIntercept": -4096.0,
      "RescaleSlope": 2.0,
      "RescaleType": "US",
      "Rows": 832,
      "SAR": 0.05093030990265,
      "SamplesPerPixel": 1,
      "ScanOptions": "FS",
      "ScanningSequence": "EP",
      "SequenceName": "epfid2d1_104",
      "SequenceVariant": [
        "SK",
        "SS"
],
      "SeriesDescription": "task_fLoc_run-2",
      "SeriesNumber": 17,
      "SeriesTime": "140504.041000",
      "SliceLocation": -38.781766972519,
      "SliceThickness": 2.0,
      "SmallestImagePixelValue": 0,
      "SoftwareVersions": "syngo MR E11",
      "SpacingBetweenSlices": 1.9999999883188,
      "SpecificCharacterSet": "ISO_IR 100",
      "StudyID": "1",
      "StudyTime": "135215.490000",
      "TransmitCoilName": "Body",
      "VariableFlipAngleFlag": "N",
      "WindowCenterWidthExplanation": "Algo1",
      "dBdt": 0.0},
    "slices": {}
  },
  "time": {
    "samples": {
      "AcquisitionNumber": [1, 2, 3, 4, 5, 6, 7, 8, 9, 10, 11, 12, 13, 14, 15, 16, 17, 18, 19, 20, 21, 22, 23, 24, 25, 26, 27, 28, 29, 30, 31, 32, 33, 34, 35, 36, 37, 38, 39, 40, 41, 42, 43, 44, 45, 46, 47, 48, 49, 50, 51, 52, 53, 54, 55, 56, 57, 58, 59, 60, 61, 62, 63, 64, 65, 66, 67, 68, 69, 70, 71, 72, 73, 74, 75, 76, 77, 78, 79, 80, 81, 82, 83, 84, 85, 86, 87, 88, 89, 90, 91, 92, 93, 94, 95, 96, 97, 98, 99, 100, 101, 102, 103, 104, 105, 106, 107, 108, 109, 110, 111, 112, 113, 114, 115, 116, 117, 118, 119, 120, 121, 122, 123, 124, 125, 126, 127, 128, 129, 130, 131, 132, 133, 134, 135, 136, 137, 138, 139, 140, 141, 142, 143, 144, 145, 146, 147, 148, 149, 150, 151, 152, 153, 154, 155],
      "AcquisitionTime": ["140335.987500", "140337.477500", "140338.967500", "140340.457500", "140341.947500", "140343.437500", "140344.927500", "140346.417500", "140347.907500", "140349.397500", "140350.887500", "140352.377500", "140353.867500", "140355.357500", "140356.847500", "140358.337500", "140359.827500", "140401.317500", "140402.807500", "140404.297500", "140405.787500", "140407.277500", "140408.767500", "140410.257500", "140411.747500", "140413.237500", "140414.727500", "140416.217500", "140417.707500", "140419.197500", "140420.687500", "140422.177500", "140423.667500", "140425.157500", "140426.647500", "140428.137500", "140429.627500", "140431.117500", "140432.607500", "140434.097500", "140435.587500", "140437.077500", "140438.567500", "140440.057500", "140441.547500", "140443.037500", "140444.527500", "140446.017500", "140447.507500", "140448.997500", "140450.487500", "140451.977500", "140453.467500", "140454.957500", "140456.447500", "140457.937500", "140459.427500", "140500.917500", "140502.407500", "140503.897500", "140505.387500", "140506.877500", "140508.367500", "140509.857500", "140511.347500", "140512.837500", "140514.327500", "140515.817500", "140517.307500", "140518.797500", "140520.287500", "140521.777500", "140523.267500", "140524.757500", "140526.247500", "140527.737500", "140529.227500", "140530.717500", "140532.207500", "140533.697500", "140535.187500", "140536.677500", "140538.167500", "140539.657500", "140541.147500", "140542.637500", "140544.127500", "140545.617500", "140547.107500", "140548.597500", "140550.087500", "140551.577500", "140553.067500", "140554.557500", "140556.047500", "140557.537500", "140559.027500", "140600.517500", "140602.007500", "140603.497500", "140604.987500", "140606.477500", "140607.967500", "140609.457500", "140610.947500", "140612.437500", "140613.927500", "140615.417500", "140616.907500", "140618.397500", "140619.887500", "140621.377500", "140622.867500", "140624.357500", "140625.847500", "140627.337500", "140628.827500", "140630.317500", "140631.807500", "140633.297500", "140634.787500", "140636.277500", "140637.767500", "140639.257500", "140640.747500", "140642.237500", "140643.727500", "140645.217500", "140646.707500", "140648.197500", "140649.687500", "140651.177500", "140652.667500", "140654.157500", "140655.647500", "140657.137500", "140658.627500", "140700.117500", "140701.607500", "140703.097500", "140704.587500", "140706.077500", "140707.567500", "140709.057500", "140710.547500", "140712.037500", "140713.527500", "140715.017500", "140716.507500", "140717.997500", "140719.487500", "140720.977500", "140722.467500", "140723.957500", "140725.447500"],
      "ContentTime": ["140504.043000", "140504.046000", "140504.049000", "140504.052000", "140504.055000", "140504.057000", "140504.060000", "140504.062000", "140504.065000", "140504.067000", "140504.070000", "140504.072000", "140504.075000", "140504.077000", "140504.080000", "140504.082000", "140504.085000", "140504.087000", "140504.090000", "140504.092000", "140504.095000", "140504.097000", "140504.100000", "140504.102000", "140504.105000", "140504.107000", "140504.110000", "140504.112000", "140504.115000", "140504.118000", "140523.960000", "140523.962000", "140523.965000", "140523.968000", "140523.970000", "140523.973000", "140523.975000", "140523.978000", "140523.980000", "140523.983000", "140523.985000", "140523.988000", "140523.990000", "140523.993000", "140523.995000", "140523.998000", "140524.001000", "140524.004000", "140524.006000", "140524.009000", "140524.011000", "140543.947000", "140543.950000", "140543.953000", "140543.955000", "140543.958000", "140543.960000", "140543.963000", "140543.965000", "140543.968000", "140543.970000", "140543.973000", "140543.975000", "140543.978000", "140543.980000", "140543.983000", "140543.986000", "140543.988000", "140543.990000", "140543.993000", "140543.996000", "140603.959000", "140603.962000", "140603.964000", "140603.967000", "140603.969000", "140603.972000", "140603.974000", "140603.977000", "140603.979000", "140603.982000", "140603.984000", "140603.987000", "140603.989000", "140603.992000", "140603.994000", "140603.997000", "140604.001000", "140604.003000", "140604.005000", "140604.008000", "140623.952000", "140623.955000", "140623.957000", "140623.960000", "140623.963000", "140623.965000", "140623.967000", "140623.970000", "140623.973000", "140623.975000", "140623.978000", "140623.980000", "140623.983000", "140623.985000", "140623.988000", "140623.990000", "140623.993000", "140623.995000", "140623.998000", "140624.001000", "140703.994000", "140703.997000", "140704.000000", "140704.003000", "140704.010000", "140704.012000", "140704.015000", "140704.017000", "140704.020000", "140704.022000", "140704.025000", "140704.027000", "140704.030000", "140704.032000", "140704.035000", "140704.037000", "140704.040000", "140704.042000", "140704.045000", "140704.047000", "140704.050000", "140704.052000", "140704.055000", "140704.057000", "140704.060000", "140704.063000", "140704.065000", "140727.875000", "140727.878000", "140727.880000", "140727.883000", "140727.895000", "140727.897000", "140727.900000", "140727.902000", "140727.905000", "140727.907000", "140727.910000", "140727.912000", "140727.915000", "140727.917000", "140727.920000", "140727.922000", "140727.925000"],
      "InstanceCreationTime": ["140504.043000", "140504.046000", "140504.049000", "140504.052000", "140504.055000", "140504.057000", "140504.060000", "140504.062000", "140504.065000", "140504.067000", "140504.070000", "140504.072000", "140504.075000", "140504.077000", "140504.080000", "140504.082000", "140504.085000", "140504.087000", "140504.090000", "140504.092000", "140504.095000", "140504.097000", "140504.100000", "140504.102000", "140504.105000", "140504.107000", "140504.110000", "140504.112000", "140504.115000", "140504.118000", "140523.960000", "140523.962000", "140523.965000", "140523.968000", "140523.970000", "140523.973000", "140523.975000", "140523.978000", "140523.980000", "140523.983000", "140523.985000", "140523.988000", "140523.990000", "140523.993000", "140523.995000", "140523.998000", "140524.001000", "140524.004000", "140524.006000", "140524.009000", "140524.011000", "140543.947000", "140543.950000", "140543.953000", "140543.955000", "140543.958000", "140543.960000", "140543.963000", "140543.965000", "140543.968000", "140543.970000", "140543.973000", "140543.975000", "140543.978000", "140543.980000", "140543.983000", "140543.986000", "140543.988000", "140543.990000", "140543.993000", "140543.996000", "140603.959000", "140603.962000", "140603.964000", "140603.967000", "140603.969000", "140603.972000", "140603.974000", "140603.977000", "140603.979000", "140603.982000", "140603.984000", "140603.987000", "140603.989000", "140603.992000", "140603.994000", "140603.997000", "140604.001000", "140604.003000", "140604.005000", "140604.008000", "140623.952000", "140623.955000", "140623.957000", "140623.960000", "140623.963000", "140623.965000", "140623.967000", "140623.970000", "140623.973000", "140623.975000", "140623.978000", "140623.980000", "140623.983000", "140623.985000", "140623.988000", "140623.990000", "140623.993000", "140623.995000", "140623.998000", "140624.001000", "140703.994000", "140703.997000", "140704.000000", "140704.003000", "140704.010000", "140704.012000", "140704.015000", "140704.017000", "140704.020000", "140704.022000", "140704.025000", "140704.027000", "140704.030000", "140704.032000", "140704.035000", "140704.037000", "140704.040000", "140704.042000", "140704.045000", "140704.047000", "140704.050000", "140704.052000", "140704.055000", "140704.057000", "140704.060000", "140704.063000", "140704.065000", "140727.875000", "140727.878000", "140727.880000", "140727.883000", "140727.895000", "140727.897000", "140727.900000", "140727.902000", "140727.905000", "140727.907000", "140727.910000", "140727.912000", "140727.915000", "140727.917000", "140727.920000", "140727.922000", "140727.925000"],
      "InstanceNumber": [1, 2, 3, 4, 5, 6, 7, 8, 9, 10, 11, 12, 13, 14, 15, 16, 17, 18, 19, 20, 21, 22, 23, 24, 25, 26, 27, 28, 29, 30, 31, 32, 33, 34, 35, 36, 37, 38, 39, 40, 41, 42, 43, 44, 45, 46, 47, 48, 49, 50, 51, 52, 53, 54, 55, 56, 57, 58, 59, 60, 61, 62, 63, 64, 65, 66, 67, 68, 69, 70, 71, 72, 73, 74, 75, 76, 77, 78, 79, 80, 81, 82, 83, 84, 85, 86, 87, 88, 89, 90, 91, 92, 93, 94, 95, 96, 97, 98, 99, 100, 101, 102, 103, 104, 105, 106, 107, 108, 109, 110, 111, 112, 113, 114, 115, 116, 117, 118, 119, 120, 121, 122, 123, 124, 125, 126, 127, 128, 129, 130, 131, 132, 133, 134, 135, 136, 137, 138, 139, 140, 141, 142, 143, 144, 145, 146, 147, 148, 149, 150, 151, 152, 153, 154, 155],
      "WindowCenter": [4750.0, 4752.0, 4750.0, 4750.0, 4754.0, 4750.0, 4752.0, 4748.0, 4746.0, 4748.0, 4748.0, 4748.0, 4750.0, 4750.0, 4748.0, 4748.0, 4752.0, 4750.0, 4746.0, 4752.0, 4748.0, 4750.0, 4750.0, 4750.0, 4746.0, 4750.0, 4752.0, 4750.0, 4748.0, 4752.0, 4748.0, 4752.0, 4754.0, 4754.0, 4750.0, 4748.0, 4756.0, 4752.0, 4754.0, 4752.0, 4750.0, 4750.0, 4754.0, 4752.0, 4752.0, 4752.0, 4752.0, 4754.0, 4750.0, 4754.0, 4750.0, 4752.0, 4750.0, 4752.0, 4756.0, 4752.0, 4752.0, 4748.0, 4752.0, 4748.0, 4752.0, 4750.0, 4750.0, 4750.0, 4750.0, 4750.0, 4750.0, 4754.0, 4776.0, 4744.0, 4748.0, 4750.0, 4750.0, 4750.0, 4754.0, 4752.0, 4752.0, 4750.0, 4752.0, 4756.0, 4748.0, 4754.0, 4754.0, 4754.0, 4754.0, 4756.0, 4750.0, 4752.0, 4752.0, 4754.0, 4752.0, 4750.0, 4752.0, 4752.0, 4750.0, 4752.0, 4754.0, 4752.0, 4752.0, 4756.0, 4752.0, 4756.0, 4752.0, 4750.0, 4752.0, 4752.0, 4774.0, 4748.0, 4750.0, 4752.0, 4754.0, 4754.0, 4754.0, 4752.0, 4750.0, 4774.0, 4752.0, 4754.0, 4754.0, 4750.0, 4750.0, 4752.0, 4750.0, 4754.0, 4750.0, 4754.0, 4752.0, 4752.0, 4752.0, 4754.0, 4752.0, 4754.0, 4752.0, 4756.0, 4752.0, 4752.0, 4752.0, 4752.0, 4750.0, 4756.0, 4750.0, 4752.0, 4752.0, 4754.0, 4754.0, 4754.0, 4778.0, 4754.0, 4748.0, 4778.0, 4752.0, 4756.0, 4750.0, 4750.0, 4750.0],
      "WindowWidth": [18538.0, 18536.0, 18538.0, 18536.0, 18542.0, 18534.0, 18538.0, 18538.0, 18528.0, 18534.0, 18538.0, 18532.0, 18536.0, 18536.0, 18536.0, 18534.0, 18534.0, 18534.0, 18532.0, 18542.0, 18536.0, 18538.0, 18536.0, 18540.0, 18534.0, 18536.0, 18538.0, 18536.0, 18536.0, 18538.0, 18538.0, 18540.0, 18542.0, 18538.0, 18538.0, 18530.0, 18540.0, 18538.0, 18540.0, 18536.0, 18538.0, 18540.0, 18536.0, 18538.0, 18538.0, 18542.0, 18542.0, 18536.0, 18534.0, 18538.0, 18542.0, 18538.0, 18536.0, 18538.0, 18542.0, 18540.0, 18540.0, 18538.0, 18538.0, 18538.0, 18536.0, 18538.0, 18538.0, 18540.0, 18538.0, 18536.0, 18536.0, 18542.0, 18568.0, 18528.0, 18538.0, 18536.0, 18538.0, 18536.0, 18534.0, 18540.0, 18534.0, 18538.0, 18536.0, 18540.0, 18538.0, 18540.0, 18538.0, 18540.0, 18540.0, 18542.0, 18536.0, 18538.0, 18536.0, 18542.0, 18536.0, 18536.0, 18536.0, 18536.0, 18538.0, 18534.0, 18538.0, 18536.0, 18536.0, 18544.0, 18540.0, 18540.0, 18542.0, 18538.0, 18544.0, 18540.0, 18570.0, 18538.0, 18540.0, 18538.0, 18536.0, 18536.0, 18536.0, 18540.0, 18534.0, 18570.0, 18538.0, 18540.0, 18536.0, 18536.0, 18540.0, 18536.0, 18534.0, 18540.0, 18536.0, 18536.0, 18528.0, 18538.0, 18538.0, 18540.0, 18538.0, 18536.0, 18536.0, 18534.0, 18536.0, 18538.0, 18536.0, 18534.0, 18534.0, 18540.0, 18536.0, 18534.0, 18532.0, 18542.0, 18538.0, 18538.0, 18568.0, 18542.0, 18534.0, 18570.0, 18536.0, 18540.0, 18534.0, 18534.0, 18534.0]
    },
    "slices": {}
  }
}