{
  "AcquisitionMatrixPE": 104,
  "AcquisitionNumber": 1,
  "AcquisitionTime": "13:55:52.102500",
  "BandwidthPerPixelPhaseEncode": 17.17,
  "BaseResolution": 104,
  "BodyPartExamined": "BRAIN",
  "CoilCombinationMethod": "Sum of Squares",
  "ConsistencyInfo": "N4_VE11C_LATEST_20160120",
  "ConversionSoftware": "dcm2niix",
  "ConversionSoftwareVersion": "v1.0.20211006",
  "DerivedVendorReportedEchoSpacing": 0.000560011,
  "DeviceSerialNumber": "167006",
  "DwellTime": 2.1e-06,
  "EchoTime": 0.037,
  "EchoTrainLength": 104,
  "EffectiveEchoSpacing": 0.000560011,
  "FlipAngle": 52,
  "HeudiconvVersion": "0.10.0",
  "ImageComments": "Unaliased MB4/PE3/LB",
  "ImageOrientationPatientDICOM": [0.998322, 0.00922394, 0.0571712, 0.00644696, 0.963395, -0.26801],
  "ImageOrientationText": "Tra>Cor(-15.6)>Sag(3.3)",
  "ImageType": [
    "ORIGINAL",
    "PRIMARY",
    "M",
    "MB",
    "ND",
    "MOSAIC"
],
  "ImagingFrequency": 123.259,
  "InPlanePhaseEncodingDirectionDICOM": "COL",
  "InstitutionAddress": "Chemin Queen-Mary 4565,Montreal,District,CA,H3W 1W5",
  "InstitutionName": "IUGM",
  "InstitutionalDepartmentName": "Department",
  "MRAcquisitionType": "2D",
  "MagneticFieldStrength": 3,
  "Manufacturer": "Siemens",
  "ManufacturersModelName": "Prisma_fit",
  "MatrixCoilMode": "SENSE",
  "Modality": "MR",
  "MultibandAccelerationFactor": 4,
  "PartialFourier": 1,
  "PatientPosition": "HFS",
  "PercentPhaseFOV": 100,
  "PercentSampling": 100,
  "PhaseEncodingDirection": "j",
  "PhaseEncodingSteps": 104,
  "PhaseResolution": 1,
  "PixelBandwidth": 2290,
  "ProcedureStepDescription": "localizers^fLoc",
  "ProtocolName": "task_fLoc_run-1",
  "PulseSequenceDetails": "%CustomerSeq%\\cmrr_mbep2d_bold",
  "ReceiveCoilActiveElements": "HC1-7;NC1,2",
  "ReceiveCoilName": "HeadNeck_64",
  "ReconMatrixPE": 104,
  "RepetitionTime": 1.49,
  "SAR": 0.0509303,
  "ScanOptions": "FS",
  "ScanningSequence": "EP",
  "SequenceName": "epfid2d1_104",
  "SequenceVariant": "SK\\SS",
  "SeriesDescription": "task_fLoc_run-1",
  "SeriesNumber": 10,
  "ShimSetting": [652, -7205, -8795, 695, 92, 25, 40, 3],
  "SliceThickness": 2,
  "SliceTiming": [0, 0.785, 0.1, 0.8825, 0.1975, 0.98, 0.295, 1.08, 0.3925, 1.1775, 0.49, 1.275, 0.59, 1.3725, 0.6875, 0, 0.785, 0.1, 0.8825, 0.1975, 0.98, 0.295, 1.08, 0.3925, 1.1775, 0.49, 1.275, 0.59, 1.3725, 0.6875, 0, 0.785, 0.1, 0.8825, 0.1975, 0.98, 0.295, 1.08, 0.3925, 1.1775, 0.49, 1.275, 0.59, 1.3725, 0.6875, 0, 0.785, 0.1, 0.8825, 0.1975, 0.98, 0.295, 1.08, 0.3925, 1.1775, 0.49, 1.275, 0.59, 1.3725, 0.6875],
  "SoftwareVersions": "syngo MR E11",
  "SpacingBetweenSlices": 2,
  "StationName": "MRC35049",
  "TaskName": "fLoc",
  "TotalReadoutTime": 0.0576811,
  "TxRefAmp": 234.67,
  "WipMemBlock": "617932fe-9060-49da-8beb-be93f82701cc||Sequence: R016 ve11c/master r/e634e98; Dec 19 2017 11:00:25 by eja",
  "dcmmeta_affine": [
    [-1.9966435432434082, 0.012893928214907646, 0.11510112136602402, 105.26559448242188],
    [-0.018447889015078545, 1.9267892837524414, -0.5358569622039795, -72.78309631347656],
    [0.11434245854616165, 0.5360193848609924, 1.9234367609024048, -66.90162658691406],
    [0.0, 0.0, 0.0, 1.0]
],
  "dcmmeta_reorient_transform": [
    [0.0, -1.0, 0.0, 103.0],
    [1.0, 0.0, 0.0, 0.0],
    [0.0, 0.0, 1.0, 0.0],
    [0.0, 0.0, 0.0, 1.0]
],
  "dcmmeta_shape": [104, 104, 60, 155],
  "dcmmeta_slice_dim": 2,
  "dcmmeta_version": 0.6,
  "global": {
    "const": {
      "AcquisitionMatrix": [104, 0, 0, 104],
      "AngioFlag": "N",
      "BitsAllocated": 16,
      "BitsStored": 16,
      "BodyPartExamined": "BRAIN",
      "Columns": 832,
      "EchoNumbers": 1,
      "EchoTime": 37.0,
      "EchoTrainLength": 104,
      "FlipAngle": 52.0,
      "HighBit": 15,
      "ImageOrientationPatient": [0.99832177655737, 0.00922394427127, 0.05717122793346, 0.00644696390091, 0.96339464583446, -0.2680096883211],
      "ImagePositionPatient": [-838.06531530691, -833.74253743611, 141.79876740798],
      "ImageType": [
        "ORIGINAL",
        "PRIMARY",
        "M",
        "MB",
        "ND",
        "MOSAIC"
],
      "ImagedNucleus": "1H",
      "ImagingFrequency": 123.258912,
      "InPlanePhaseEncodingDirection": "COL",
      "MRAcquisitionType": "2D",
      "MagneticFieldStrength": 3.0,
      "Manufacturer": "SIEMENS",
      "ManufacturerModelName": "Prisma_fit",
      "Modality": "MR",
      "NumberOfAverages": 1.0,
      "NumberOfPhaseEncodingSteps": 104,
      "PercentPhaseFieldOfView": 100.0,
      "PercentSampling": 100.0,
      "PerformedProcedureStepStartTime": "135215.559000",
      "PhotometricInterpretation": "MONOCHROME2",
      "PixelBandwidth": 2290.0,
      "PixelRepresentation": 0,
      "PixelSpacing": [2.0, 2.0],
      "ProtocolName": "task_fLoc_run-1",
      "RepetitionTime": 1490.0,
      "Rows": 832,
      "SAR": 0.05093030990265,
      "SamplesPerPixel": 1,
      "ScanOptions": "FS",
      "ScanningSequence": "EP",
      "SequenceName": "epfid2d1_104",
      "SequenceVariant": [
        "SK",
        "SS"
],
      "SeriesDescription": "task_fLoc_run-1",
      "SeriesNumber": 10,
      "SeriesTime": "135716.875000",
      "SliceLocation": -38.781766972519,
      "SliceThickness": 2.0,
      "SmallestImagePixelValue": 0,
      "SoftwareVersions": "syngo MR E11",
      "SpacingBetweenSlices": 1.9999999883188,
      "SpecificCharacterSet": "ISO_IR 100",
      "StudyID": "1",
      "StudyTime": "135215.490000",
      "TransmitCoilName": "Body",
      "VariableFlipAngleFlag": "N",
      "WindowCenterWidthExplanation": "Algo1",
      "dBdt": 0.0},
    "slices": {}
  },
  "time": {
    "samples": {
      "AcquisitionNumber": [1, 2, 3, 4, 5, 6, 7, 8, 9, 10, 11, 12, 13, 14, 15, 16, 17, 18, 19, 20, 21, 22, 23, 24, 25, 26, 27, 28, 29, 30, 31, 32, 33, 34, 35, 36, 37, 38, 39, 40, 41, 42, 43, 44, 45, 46, 47, 48, 49, 50, 51, 52, 53, 54, 55, 56, 57, 58, 59, 60, 61, 62, 63, 64, 65, 66, 67, 68, 69, 70, 71, 72, 73, 74, 75, 76, 77, 78, 79, 80, 81, 82, 83, 84, 85, 86, 87, 88, 89, 90, 91, 92, 93, 94, 95, 96, 97, 98, 99, 100, 101, 102, 103, 104, 105, 106, 107, 108, 109, 110, 111, 112, 113, 114, 115, 116, 117, 118, 119, 120, 121, 122, 123, 124, 125, 126, 127, 128, 129, 130, 131, 132, 133, 134, 135, 136, 137, 138, 139, 140, 141, 142, 143, 144, 145, 146, 147, 148, 149, 150, 151, 152, 153, 154, 155],
      "AcquisitionTime": ["135552.102500", "135553.592500", "135555.082500", "135556.572500", "135558.062500", "135559.552500", "135601.042500", "135602.532500", "135604.022500", "135605.512500", "135607.002500", "135608.492500", "135609.982500", "135611.472500", "135612.962500", "135614.452500", "135615.942500", "135617.432500", "135618.922500", "135620.412500", "135621.902500", "135623.392500", "135624.882500", "135626.372500", "135627.862500", "135629.352500", "135630.842500", "135632.332500", "135633.822500", "135635.312500", "135636.802500", "135638.292500", "135639.782500", "135641.272500", "135642.762500", "135644.252500", "135645.742500", "135647.232500", "135648.722500", "135650.212500", "135651.702500", "135653.192500", "135654.682500", "135656.172500", "135657.662500", "135659.152500", "135700.642500", "135702.132500", "135703.622500", "135705.112500", "135706.602500", "135708.092500", "135709.582500", "135711.072500", "135712.562500", "135714.052500", "135715.542500", "135717.032500", "135718.522500", "135720.012500", "135721.502500", "135722.992500", "135724.482500", "135725.972500", "135727.462500", "135728.952500", "135730.442500", "135731.932500", "135733.422500", "135734.912500", "135736.402500", "135737.892500", "135739.382500", "135740.872500", "135742.362500", "135743.852500", "135745.342500", "135746.832500", "135748.322500", "135749.812500", "135751.302500", "135752.792500", "135754.282500", "135755.772500", "135757.262500", "135758.752500", "135800.242500", "135801.732500", "135803.222500", "135804.712500", "135806.202500", "135807.692500", "135809.182500", "135810.672500", "135812.162500", "135813.652500", "135815.142500", "135816.632500", "135818.122500", "135819.612500", "135821.102500", "135822.592500", "135824.082500", "135825.572500", "135827.062500", "135828.552500", "135830.042500", "135831.532500", "135833.022500", "135834.512500", "135836.002500", "135837.492500", "135838.982500", "135840.472500", "135841.962500", "135843.452500", "135844.942500", "135846.432500", "135847.922500", "135849.412500", "135850.902500", "135852.392500", "135853.882500", "135855.372500", "135856.862500", "135858.352500", "135859.842500", "135901.332500", "135902.822500", "135904.312500", "135905.802500", "135907.292500", "135908.782500", "135910.272500", "135911.762500", "135913.252500", "135914.742500", "135916.232500", "135917.722500", "135919.212500", "135920.702500", "135922.192500", "135923.682500", "135925.172500", "135926.662500", "135928.152500", "135929.642500", "135931.132500", "135932.622500", "135934.112500", "135935.602500", "135937.092500", "135938.582500", "135940.072500", "135941.562500"],
      "ContentTime": ["135716.878000", "135716.882000", "135716.892000", "135716.895000", "135716.898000", "135716.902000", "135716.905000", "135716.908000", "135716.912000", "135716.915000", "135716.918000", "135716.922000", "135716.925000", "135716.951000", "135716.954000", "135716.958000", "135716.961000", "135716.965000", "135716.968000", "135716.972000", "135716.975000", "135716.979000", "135716.983000", "135716.986000", "135716.989000", "135716.993000", "135716.996000", "135717.000000", "135717.003000", "135717.007000", "135736.845000", "135736.849000", "135736.852000", "135736.856000", "135736.859000", "135736.862000", "135736.865000", "135736.869000", "135736.872000", "135736.875000", "135736.879000", "135736.882000", "135736.885000", "135736.889000", "135736.892000", "135736.896000", "135736.899000", "135736.902000", "135736.906000", "135736.909000", "135736.912000", "135756.844000", "135756.848000", "135756.851000", "135756.854000", "135756.858000", "135756.861000", "135756.864000", "135756.867000", "135756.871000", "135756.874000", "135756.877000", "135756.881000", "135756.884000", "135756.887000", "135756.891000", "135756.894000", "135756.897000", "135756.901000", "135756.904000", "135756.907000", "135816.844000", "135816.848000", "135816.851000", "135816.854000", "135816.858000", "135816.861000", "135816.864000", "135816.868000", "135816.871000", "135816.874000", "135816.878000", "135816.881000", "135816.884000", "135816.888000", "135816.891000", "135816.894000", "135816.897000", "135816.901000", "135816.904000", "135816.907000", "135856.844000", "135856.848000", "135856.851000", "135856.855000", "135856.858000", "135856.862000", "135856.865000", "135856.868000", "135856.872000", "135856.875000", "135856.878000", "135856.881000", "135856.885000", "135856.888000", "135856.891000", "135856.901000", "135856.904000", "135856.907000", "135856.911000", "135856.914000", "135856.917000", "135856.934000", "135856.937000", "135856.941000", "135856.944000", "135856.948000", "135856.951000", "135856.954000", "135856.958000", "135856.961000", "135856.964000", "135856.968000", "135936.844000", "135936.848000", "135936.851000", "135936.855000", "135936.858000", "135936.861000", "135936.865000", "135936.868000", "135936.871000", "135936.875000", "135936.878000", "135936.881000", "135936.884000", "135936.888000", "135936.891000", "135936.894000", "135936.898000", "135936.901000", "135936.904000", "135936.908000", "135936.911000", "135936.914000", "135936.918000", "135936.921000", "135936.924000", "135936.928000", "135936.931000", "135943.680000", "135943.684000", "135943.687000", "135943.691000", "135943.694000"],
      "InstanceCreationTime": ["135716.878000", "135716.882000", "135716.892000", "135716.895000", "135716.898000", "135716.902000", "135716.905000", "135716.908000", "135716.912000", "135716.915000", "135716.918000", "135716.922000", "135716.925000", "135716.951000", "135716.954000", "135716.958000", "135716.961000", "135716.965000", "135716.968000", "135716.972000", "135716.975000", "135716.979000", "135716.983000", "135716.986000", "135716.989000", "135716.993000", "135716.996000", "135717.000000", "135717.003000", "135717.007000", "135736.845000", "135736.849000", "135736.852000", "135736.856000", "135736.859000", "135736.862000", "135736.865000", "135736.869000", "135736.872000", "135736.875000", "135736.879000", "135736.882000", "135736.885000", "135736.889000", "135736.892000", "135736.896000", "135736.899000", "135736.902000", "135736.906000", "135736.909000", "135736.912000", "135756.844000", "135756.848000", "135756.851000", "135756.854000", "135756.858000", "135756.861000", "135756.864000", "135756.867000", "135756.871000", "135756.874000", "135756.877000", "135756.881000", "135756.884000", "135756.887000", "135756.891000", "135756.894000", "135756.897000", "135756.901000", "135756.904000", "135756.907000", "135816.844000", "135816.848000", "135816.851000", "135816.854000", "135816.858000", "135816.861000", "135816.864000", "135816.868000", "135816.871000", "135816.874000", "135816.878000", "135816.881000", "135816.884000", "135816.888000", "135816.891000", "135816.894000", "135816.897000", "135816.901000", "135816.904000", "135816.907000", "135856.844000", "135856.848000", "135856.851000", "135856.855000", "135856.858000", "135856.862000", "135856.865000", "135856.868000", "135856.872000", "135856.875000", "135856.878000", "135856.881000", "135856.885000", "135856.888000", "135856.891000", "135856.901000", "135856.904000", "135856.907000", "135856.911000", "135856.914000", "135856.917000", "135856.934000", "135856.937000", "135856.941000", "135856.944000", "135856.948000", "135856.951000", "135856.954000", "135856.958000", "135856.961000", "135856.964000", "135856.968000", "135936.844000", "135936.848000", "135936.851000", "135936.855000", "135936.858000", "135936.861000", "135936.865000", "135936.868000", "135936.871000", "135936.875000", "135936.878000", "135936.881000", "135936.884000", "135936.888000", "135936.891000", "135936.894000", "135936.898000", "135936.901000", "135936.904000", "135936.908000", "135936.911000", "135936.914000", "135936.918000", "135936.921000", "135936.924000", "135936.928000", "135936.931000", "135943.680000", "135943.684000", "135943.687000", "135943.691000", "135943.694000"],
      "InstanceNumber": [1, 2, 3, 4, 5, 6, 7, 8, 9, 10, 11, 12, 13, 14, 15, 16, 17, 18, 19, 20, 21, 22, 23, 24, 25, 26, 27, 28, 29, 30, 31, 32, 33, 34, 35, 36, 37, 38, 39, 40, 41, 42, 43, 44, 45, 46, 47, 48, 49, 50, 51, 52, 53, 54, 55, 56, 57, 58, 59, 60, 61, 62, 63, 64, 65, 66, 67, 68, 69, 70, 71, 72, 73, 74, 75, 76, 77, 78, 79, 80, 81, 82, 83, 84, 85, 86, 87, 88, 89, 90, 91, 92, 93, 94, 95, 96, 97, 98, 99, 100, 101, 102, 103, 104, 105, 106, 107, 108, 109, 110, 111, 112, 113, 114, 115, 116, 117, 118, 119, 120, 121, 122, 123, 124, 125, 126, 127, 128, 129, 130, 131, 132, 133, 134, 135, 136, 137, 138, 139, 140, 141, 142, 143, 144, 145, 146, 147, 148, 149, 150, 151, 152, 153, 154, 155],
      "LargestImagePixelValue": [40110, 38366, 38111, 37439, 38358, 38182, 37563, 37391, 37258, 37886, 37754, 37449, 37858, 37594, 37532, 37577, 38006, 37958, 38014, 37651, 37698, 38307, 37914, 37918, 37917, 37714, 38652, 37696, 37745, 37784, 37985, 38164, 37708, 38531, 37714, 38026, 37985, 38188, 38079, 38048, 38485, 37895, 38434, 38063, 38075, 37840, 38056, 37950, 37932, 37785, 38223, 37973, 37806, 37822, 38196, 37924, 37981, 37702, 38089, 37271, 37619, 37462, 37336, 37485, 37482, 37325, 37588, 37556, 37455, 38162, 37417, 37636, 37307, 37516, 37001, 37477, 37538, 37423, 37996, 37607, 37173, 37149, 37571, 37234, 37464, 37477, 37318, 37171, 37235, 37269, 37159, 37585, 37194, 36953, 37150, 37263, 37559, 37259, 37160, 37677, 37315, 37482, 37731, 37649, 37073, 36978, 37645, 37037, 37575, 37155, 37223, 37496, 37374, 37177, 37099, 37318, 37323, 37563, 37374, 37577, 37512, 36978, 37403, 37200, 37628, 37109, 37482, 37412, 37599, 37339, 37610, 37631, 37838, 37152, 37313, 37566, 37536, 37608, 37422, 37598, 37110, 37980, 37483, 37923, 37336, 37406, 37672, 37719, 37219, 37501, 37692, 37521, 37269, 38025, 37549],
      "WindowCenter": [10181.0, 10147.0, 10142.0, 10128.0, 10129.0, 10112.0, 10106.0, 10120.0, 10130.0, 10145.0, 10140.0, 10126.0, 10131.0, 10139.0, 10139.0, 10139.0, 10147.0, 10146.0, 10137.0, 10126.0, 10119.0, 10133.0, 10137.0, 10131.0, 10115.0, 10113.0, 10123.0, 10128.0, 10144.0, 10147.0, 10154.0, 10148.0, 10134.0, 10127.0, 10120.0, 10122.0, 10127.0, 10127.0, 10128.0, 10120.0, 10117.0, 10105.0, 10117.0, 10127.0, 10123.0, 10114.0, 10101.0, 10092.0, 10091.0, 10101.0, 10118.0, 10128.0, 10121.0, 10113.0, 10118.0, 10121.0, 10121.0, 10114.0, 10118.0, 10108.0, 10113.0, 10114.0, 10130.0, 10132.0, 10117.0, 10105.0, 10103.0, 10106.0, 10106.0, 10103.0, 10091.0, 10104.0, 10107.0, 10116.0, 10118.0, 10125.0, 10118.0, 10116.0, 10127.0, 10130.0, 10120.0, 10117.0, 10117.0, 10118.0, 10118.0, 10115.0, 10110.0, 10116.0, 10122.0, 10125.0, 10129.0, 10135.0, 10119.0, 10102.0, 10091.0, 10099.0, 10120.0, 10128.0, 10135.0, 10133.0, 10124.0, 10132.0, 10135.0, 10135.0, 10114.0, 10094.0, 10087.0, 10081.0, 10098.0, 10110.0, 10120.0, 10120.0, 10110.0, 10095.0, 10093.0, 10098.0, 10106.0, 10106.0, 10101.0, 10099.0, 10091.0, 10089.0, 10089.0, 10084.0, 10088.0, 10089.0, 10091.0, 10092.0, 10090.0, 10089.0, 10104.0, 10116.0, 10132.0, 10122.0, 10112.0, 10093.0, 10079.0, 10086.0, 10098.0, 10102.0, 10101.0, 10096.0, 10082.0, 10095.0, 10097.0, 10106.0, 10108.0, 10116.0, 10110.0, 10103.0, 10106.0, 10098.0, 10093.0, 10113.0, 10109.0],
      "WindowWidth": [21684.0, 21587.0, 21563.0, 21525.0, 21519.0, 21480.0, 21468.0, 21498.0, 21520.0, 21552.0, 21543.0, 21514.0, 21521.0, 21540.0, 21542.0, 21543.0, 21560.0, 21556.0, 21537.0, 21508.0, 21490.0, 21519.0, 21531.0, 21521.0, 21485.0, 21478.0, 21499.0, 21516.0, 21548.0, 21558.0, 21572.0, 21560.0, 21528.0, 21507.0, 21494.0, 21500.0, 21509.0, 21509.0, 21511.0, 21494.0, 21484.0, 21460.0, 21484.0, 21509.0, 21504.0, 21480.0, 21448.0, 21427.0, 21427.0, 21451.0, 21492.0, 21513.0, 21498.0, 21480.0, 21489.0, 21498.0, 21498.0, 21481.0, 21487.0, 21471.0, 21478.0, 21481.0, 21518.0, 21524.0, 21488.0, 21458.0, 21453.0, 21461.0, 21461.0, 21454.0, 21431.0, 21456.0, 21466.0, 21488.0, 21496.0, 21508.0, 21493.0, 21488.0, 21508.0, 21517.0, 21498.0, 21490.0, 21489.0, 21494.0, 21491.0, 21484.0, 21473.0, 21487.0, 21498.0, 21506.0, 21520.0, 21530.0, 21494.0, 21455.0, 21430.0, 21447.0, 21493.0, 21516.0, 21533.0, 21523.0, 21500.0, 21518.0, 21526.0, 21525.0, 21481.0, 21433.0, 21412.0, 21402.0, 21441.0, 21473.0, 21499.0, 21498.0, 21473.0, 21438.0, 21432.0, 21443.0, 21460.0, 21461.0, 21449.0, 21445.0, 21426.0, 21418.0, 21418.0, 21411.0, 21418.0, 21420.0, 21427.0, 21429.0, 21424.0, 21424.0, 21457.0, 21489.0, 21522.0, 21503.0, 21478.0, 21430.0, 21395.0, 21410.0, 21442.0, 21456.0, 21451.0, 21436.0, 21408.0, 21434.0, 21443.0, 21462.0, 21469.0, 21484.0, 21471.0, 21456.0, 21461.0, 21443.0, 21434.0, 21474.0, 21470.0]
    },
    "slices": {}
  }
}