{
  "AcquisitionMatrixPE": 104,
  "AcquisitionNumber": 1,
  "AcquisitionTime": "14:03:35.987500",
  "BandwidthPerPixelPhaseEncode": 17.17,
  "BaseResolution": 104,
  "BodyPartExamined": "BRAIN",
  "CoilCombinationMethod": "Sum of Squares",
  "ConsistencyInfo": "N4_VE11C_LATEST_20160120",
  "ConversionSoftware": "dcm2niix",
  "ConversionSoftwareVersion": "v1.0.20211006",
  "DerivedVendorReportedEchoSpacing": 0.000560011,
  "DeviceSerialNumber": "167006",
  "DwellTime": 2.1e-06,
  "EchoTime": 0.037,
  "EchoTrainLength": 104,
  "EffectiveEchoSpacing": 0.000560011,
  "FlipAngle": 52,
  "HeudiconvVersion": "0.10.0",
  "ImageComments": "Unaliased MB4/PE3/LB",
  "ImageOrientationPatientDICOM": [0.998322, 0.00922394, 0.0571712, 0.00644696, 0.963395, -0.26801],
  "ImageOrientationText": "Tra>Cor(-15.6)>Sag(3.3)",
  "ImageType": [
    "ORIGINAL",
    "PRIMARY",
    "M",
    "MB",
    "ND",
    "MOSAIC"
],
  "ImagingFrequency": 123.259,
  "InPlanePhaseEncodingDirectionDICOM": "COL",
  "InstitutionAddress": "Chemin Queen-Mary 4565,Montreal,District,CA,H3W 1W5",
  "InstitutionName": "IUGM",
  "InstitutionalDepartmentName": "Department",
  "MRAcquisitionType": "2D",
  "MagneticFieldStrength": 3,
  "Manufacturer": "Siemens",
  "ManufacturersModelName": "Prisma_fit",
  "MatrixCoilMode": "SENSE",
  "Modality": "MR",
  "MultibandAccelerationFactor": 4,
  "PartialFourier": 1,
  "PatientPosition": "HFS",
  "PercentPhaseFOV": 100,
  "PercentSampling": 100,
  "PhaseEncodingDirection": "j",
  "PhaseEncodingSteps": 104,
  "PhaseResolution": 1,
  "PixelBandwidth": 2290,
  "ProcedureStepDescription": "localizers^fLoc",
  "ProtocolName": "task_fLoc_run-2",
  "PulseSequenceDetails": "%CustomerSeq%\\cmrr_mbep2d_bold",
  "ReceiveCoilActiveElements": "HC1-7;NC1,2",
  "ReceiveCoilName": "HeadNeck_64",
  "ReconMatrixPE": 104,
  "RepetitionTime": 1.49,
  "SAR": 0.0509303,
  "ScanOptions": "FS",
  "ScanningSequence": "EP",
  "SequenceName": "epfid2d1_104",
  "SequenceVariant": "SK\\SS",
  "SeriesDescription": "task_fLoc_run-2",
  "SeriesNumber": 16,
  "ShimSetting": [652, -7205, -8795, 695, 92, 25, 40, 3],
  "SliceThickness": 2,
  "SliceTiming": [0, 0.785, 0.0975, 0.8825, 0.195, 0.98, 0.295, 1.0775, 0.3925, 1.175, 0.49, 1.275, 0.5875, 1.3725, 0.685, 0, 0.785, 0.0975, 0.8825, 0.195, 0.98, 0.295, 1.0775, 0.3925, 1.175, 0.49, 1.275, 0.5875, 1.3725, 0.685, 0, 0.785, 0.0975, 0.8825, 0.195, 0.98, 0.295, 1.0775, 0.3925, 1.175, 0.49, 1.275, 0.5875, 1.3725, 0.685, 0, 0.785, 0.0975, 0.8825, 0.195, 0.98, 0.295, 1.0775, 0.3925, 1.175, 0.49, 1.275, 0.5875, 1.3725, 0.685],
  "SoftwareVersions": "syngo MR E11",
  "SpacingBetweenSlices": 2,
  "StationName": "MRC35049",
  "TaskName": "fLoc",
  "TotalReadoutTime": 0.0576811,
  "TxRefAmp": 234.67,
  "WipMemBlock": "28379e2e-29f7-4b99-9c1d-8cdf882fdfec||Sequence: R016 ve11c/master r/e634e98; Dec 19 2017 11:00:25 by eja",
  "dcmmeta_affine": [
    [-1.9966435432434082, 0.012893928214907646, 0.11510112136602402, 105.26559448242188],
    [-0.018447889015078545, 1.9267892837524414, -0.5358569622039795, -72.78309631347656],
    [0.11434245854616165, 0.5360193848609924, 1.9234367609024048, -66.90162658691406],
    [0.0, 0.0, 0.0, 1.0]
],
  "dcmmeta_reorient_transform": [
    [0.0, -1.0, 0.0, 103.0],
    [1.0, 0.0, 0.0, 0.0],
    [0.0, 0.0, 1.0, 0.0],
    [0.0, 0.0, 0.0, 1.0]
],
  "dcmmeta_shape": [104, 104, 60, 155],
  "dcmmeta_slice_dim": 2,
  "dcmmeta_version": 0.6,
  "global": {
    "const": {
      "AcquisitionMatrix": [104, 0, 0, 104],
      "AngioFlag": "N",
      "BitsAllocated": 16,
      "BitsStored": 16,
      "BodyPartExamined": "BRAIN",
      "Columns": 832,
      "EchoNumbers": 1,
      "EchoTime": 37.0,
      "EchoTrainLength": 104,
      "FlipAngle": 52.0,
      "HighBit": 15,
      "ImageOrientationPatient": [0.99832177655737, 0.00922394427127, 0.05717122793346, 0.00644696390091, 0.96339464583446, -0.2680096883211],
      "ImagePositionPatient": [-838.06531530691, -833.74253743611, 141.79876740798],
      "ImageType": [
        "ORIGINAL",
        "PRIMARY",
        "M",
        "MB",
        "ND",
        "MOSAIC"
],
      "ImagedNucleus": "1H",
      "ImagingFrequency": 123.258911,
      "InPlanePhaseEncodingDirection": "COL",
      "MRAcquisitionType": "2D",
      "MagneticFieldStrength": 3.0,
      "Manufacturer": "SIEMENS",
      "ManufacturerModelName": "Prisma_fit",
      "Modality": "MR",
      "NumberOfAverages": 1.0,
      "NumberOfPhaseEncodingSteps": 104,
      "PercentPhaseFieldOfView": 100.0,
      "PercentSampling": 100.0,
      "PerformedProcedureStepStartTime": "135215.559000",
      "PhotometricInterpretation": "MONOCHROME2",
      "PixelBandwidth": 2290.0,
      "PixelRepresentation": 0,
      "PixelSpacing": [2.0, 2.0],
      "ProtocolName": "task_fLoc_run-2",
      "RepetitionTime": 1490.0,
      "Rows": 832,
      "SAR": 0.05093030990265,
      "SamplesPerPixel": 1,
      "ScanOptions": "FS",
      "ScanningSequence": "EP",
      "SequenceName": "epfid2d1_104",
      "SequenceVariant": [
        "SK",
        "SS"
],
      "SeriesDescription": "task_fLoc_run-2",
      "SeriesNumber": 16,
      "SeriesTime": "140503.877000",
      "SliceLocation": -38.781766972519,
      "SliceThickness": 2.0,
      "SmallestImagePixelValue": 0,
      "SoftwareVersions": "syngo MR E11",
      "SpacingBetweenSlices": 1.9999999883188,
      "SpecificCharacterSet": "ISO_IR 100",
      "StudyID": "1",
      "StudyTime": "135215.490000",
      "TransmitCoilName": "Body",
      "VariableFlipAngleFlag": "N",
      "WindowCenterWidthExplanation": "Algo1",
      "dBdt": 0.0},
    "slices": {}
  },
  "time": {
    "samples": {
      "AcquisitionNumber": [1, 2, 3, 4, 5, 6, 7, 8, 9, 10, 11, 12, 13, 14, 15, 16, 17, 18, 19, 20, 21, 22, 23, 24, 25, 26, 27, 28, 29, 30, 31, 32, 33, 34, 35, 36, 37, 38, 39, 40, 41, 42, 43, 44, 45, 46, 47, 48, 49, 50, 51, 52, 53, 54, 55, 56, 57, 58, 59, 60, 61, 62, 63, 64, 65, 66, 67, 68, 69, 70, 71, 72, 73, 74, 75, 76, 77, 78, 79, 80, 81, 82, 83, 84, 85, 86, 87, 88, 89, 90, 91, 92, 93, 94, 95, 96, 97, 98, 99, 100, 101, 102, 103, 104, 105, 106, 107, 108, 109, 110, 111, 112, 113, 114, 115, 116, 117, 118, 119, 120, 121, 122, 123, 124, 125, 126, 127, 128, 129, 130, 131, 132, 133, 134, 135, 136, 137, 138, 139, 140, 141, 142, 143, 144, 145, 146, 147, 148, 149, 150, 151, 152, 153, 154, 155],
      "AcquisitionTime": ["140335.987500", "140337.477500", "140338.967500", "140340.457500", "140341.947500", "140343.437500", "140344.927500", "140346.417500", "140347.907500", "140349.397500", "140350.887500", "140352.377500", "140353.867500", "140355.357500", "140356.847500", "140358.337500", "140359.827500", "140401.317500", "140402.807500", "140404.297500", "140405.787500", "140407.277500", "140408.767500", "140410.257500", "140411.747500", "140413.237500", "140414.727500", "140416.217500", "140417.707500", "140419.197500", "140420.687500", "140422.177500", "140423.667500", "140425.157500", "140426.647500", "140428.137500", "140429.627500", "140431.117500", "140432.607500", "140434.097500", "140435.587500", "140437.077500", "140438.567500", "140440.057500", "140441.547500", "140443.037500", "140444.527500", "140446.017500", "140447.507500", "140448.997500", "140450.487500", "140451.977500", "140453.467500", "140454.957500", "140456.447500", "140457.937500", "140459.427500", "140500.917500", "140502.407500", "140503.897500", "140505.387500", "140506.877500", "140508.367500", "140509.857500", "140511.347500", "140512.837500", "140514.327500", "140515.817500", "140517.307500", "140518.797500", "140520.287500", "140521.777500", "140523.267500", "140524.757500", "140526.247500", "140527.737500", "140529.227500", "140530.717500", "140532.207500", "140533.697500", "140535.187500", "140536.677500", "140538.167500", "140539.657500", "140541.147500", "140542.637500", "140544.127500", "140545.617500", "140547.107500", "140548.597500", "140550.087500", "140551.577500", "140553.067500", "140554.557500", "140556.047500", "140557.537500", "140559.027500", "140600.517500", "140602.007500", "140603.497500", "140604.987500", "140606.477500", "140607.967500", "140609.457500", "140610.947500", "140612.437500", "140613.927500", "140615.417500", "140616.907500", "140618.397500", "140619.887500", "140621.377500", "140622.867500", "140624.357500", "140625.847500", "140627.337500", "140628.827500", "140630.317500", "140631.807500", "140633.297500", "140634.787500", "140636.277500", "140637.767500", "140639.257500", "140640.747500", "140642.237500", "140643.727500", "140645.217500", "140646.707500", "140648.197500", "140649.687500", "140651.177500", "140652.667500", "140654.157500", "140655.647500", "140657.137500", "140658.627500", "140700.117500", "140701.607500", "140703.097500", "140704.587500", "140706.077500", "140707.567500", "140709.057500", "140710.547500", "140712.037500", "140713.527500", "140715.017500", "140716.507500", "140717.997500", "140719.487500", "140720.977500", "140722.467500", "140723.957500", "140725.447500"],
      "ContentTime": ["140503.880000", "140503.884000", "140503.887000", "140503.890000", "140503.893000", "140503.897000", "140503.900000", "140503.903000", "140503.907000", "140503.910000", "140503.913000", "140503.917000", "140503.920000", "140503.923000", "140503.933000", "140503.936000", "140503.939000", "140503.943000", "140503.946000", "140503.949000", "140503.953000", "140503.956000", "140503.959000", "140503.963000", "140503.966000", "140503.969000", "140503.972000", "140503.976000", "140503.998000", "140504.003000", "140523.842000", "140523.846000", "140523.849000", "140523.852000", "140523.856000", "140523.859000", "140523.862000", "140523.865000", "140523.869000", "140523.880000", "140523.883000", "140523.886000", "140523.890000", "140523.893000", "140523.896000", "140523.900000", "140523.903000", "140523.913000", "140523.917000", "140523.920000", "140523.923000", "140543.842000", "140543.851000", "140543.854000", "140543.857000", "140543.860000", "140543.864000", "140543.867000", "140543.870000", "140543.874000", "140543.877000", "140543.880000", "140543.884000", "140543.887000", "140543.890000", "140543.894000", "140543.897000", "140543.900000", "140543.904000", "140543.907000", "140543.910000", "140603.843000", "140603.847000", "140603.850000", "140603.853000", "140603.857000", "140603.860000", "140603.863000", "140603.867000", "140603.870000", "140603.873000", "140603.876000", "140603.880000", "140603.883000", "140603.886000", "140603.890000", "140603.893000", "140603.896000", "140603.900000", "140603.910000", "140603.914000", "140623.843000", "140623.847000", "140623.850000", "140623.853000", "140623.856000", "140623.860000", "140623.863000", "140623.867000", "140623.870000", "140623.873000", "140623.877000", "140623.880000", "140623.884000", "140623.888000", "140623.891000", "140623.895000", "140623.898000", "140623.902000", "140623.906000", "140623.909000", "140703.842000", "140703.846000", "140703.849000", "140703.852000", "140703.856000", "140703.859000", "140703.862000", "140703.866000", "140703.869000", "140703.873000", "140703.876000", "140703.880000", "140703.884000", "140703.887000", "140703.891000", "140703.894000", "140703.898000", "140703.901000", "140703.905000", "140703.909000", "140703.924000", "140703.927000", "140703.930000", "140703.934000", "140703.937000", "140703.940000", "140703.944000", "140727.777000", "140727.780000", "140727.784000", "140727.787000", "140727.790000", "140727.794000", "140727.797000", "140727.800000", "140727.803000", "140727.807000", "140727.810000", "140727.813000", "140727.816000", "140727.820000", "140727.823000", "140727.826000", "140727.830000"],
      "InstanceCreationTime": ["140503.880000", "140503.884000", "140503.887000", "140503.890000", "140503.893000", "140503.897000", "140503.900000", "140503.903000", "140503.907000", "140503.910000", "140503.913000", "140503.917000", "140503.920000", "140503.923000", "140503.933000", "140503.936000", "140503.939000", "140503.943000", "140503.946000", "140503.949000", "140503.953000", "140503.956000", "140503.959000", "140503.963000", "140503.966000", "140503.969000", "140503.972000", "140503.976000", "140503.998000", "140504.003000", "140523.842000", "140523.846000", "140523.849000", "140523.852000", "140523.856000", "140523.859000", "140523.862000", "140523.865000", "140523.869000", "140523.880000", "140523.883000", "140523.886000", "140523.890000", "140523.893000", "140523.896000", "140523.900000", "140523.903000", "140523.913000", "140523.917000", "140523.920000", "140523.923000", "140543.842000", "140543.851000", "140543.854000", "140543.857000", "140543.860000", "140543.864000", "140543.867000", "140543.870000", "140543.874000", "140543.877000", "140543.880000", "140543.884000", "140543.887000", "140543.890000", "140543.894000", "140543.897000", "140543.900000", "140543.904000", "140543.907000", "140543.910000", "140603.843000", "140603.847000", "140603.850000", "140603.853000", "140603.857000", "140603.860000", "140603.863000", "140603.867000", "140603.870000", "140603.873000", "140603.876000", "140603.880000", "140603.883000", "140603.886000", "140603.890000", "140603.893000", "140603.896000", "140603.900000", "140603.910000", "140603.914000", "140623.843000", "140623.847000", "140623.850000", "140623.853000", "140623.856000", "140623.860000", "140623.863000", "140623.867000", "140623.870000", "140623.873000", "140623.877000", "140623.880000", "140623.884000", "140623.888000", "140623.891000", "140623.895000", "140623.898000", "140623.902000", "140623.906000", "140623.909000", "140703.842000", "140703.846000", "140703.849000", "140703.852000", "140703.856000", "140703.859000", "140703.862000", "140703.866000", "140703.869000", "140703.873000", "140703.876000", "140703.880000", "140703.884000", "140703.887000", "140703.891000", "140703.894000", "140703.898000", "140703.901000", "140703.905000", "140703.909000", "140703.924000", "140703.927000", "140703.930000", "140703.934000", "140703.937000", "140703.940000", "140703.944000", "140727.777000", "140727.780000", "140727.784000", "140727.787000", "140727.790000", "140727.794000", "140727.797000", "140727.800000", "140727.803000", "140727.807000", "140727.810000", "140727.813000", "140727.816000", "140727.820000", "140727.823000", "140727.826000", "140727.830000"],
      "InstanceNumber": [1, 2, 3, 4, 5, 6, 7, 8, 9, 10, 11, 12, 13, 14, 15, 16, 17, 18, 19, 20, 21, 22, 23, 24, 25, 26, 27, 28, 29, 30, 31, 32, 33, 34, 35, 36, 37, 38, 39, 40, 41, 42, 43, 44, 45, 46, 47, 48, 49, 50, 51, 52, 53, 54, 55, 56, 57, 58, 59, 60, 61, 62, 63, 64, 65, 66, 67, 68, 69, 70, 71, 72, 73, 74, 75, 76, 77, 78, 79, 80, 81, 82, 83, 84, 85, 86, 87, 88, 89, 90, 91, 92, 93, 94, 95, 96, 97, 98, 99, 100, 101, 102, 103, 104, 105, 106, 107, 108, 109, 110, 111, 112, 113, 114, 115, 116, 117, 118, 119, 120, 121, 122, 123, 124, 125, 126, 127, 128, 129, 130, 131, 132, 133, 134, 135, 136, 137, 138, 139, 140, 141, 142, 143, 144, 145, 146, 147, 148, 149, 150, 151, 152, 153, 154, 155],
      "LargestImagePixelValue": [40883, 39055, 38382, 38103, 38223, 38194, 37707, 37724, 38093, 37750, 37614, 38173, 37471, 37967, 37928, 38095, 38062, 37458, 37967, 38171, 37852, 37777, 38031, 38010, 37633, 38156, 38254, 37776, 38064, 38378, 37815, 38375, 38369, 37711, 38225, 37536, 37601, 37924, 37679, 38347, 37666, 38241, 38092, 38119, 37482, 37488, 37900, 37909, 38341, 37495, 37852, 38174, 38117, 37590, 37788, 38455, 37912, 37775, 38314, 37868, 37898, 38265, 37598, 37664, 37655, 38307, 37748, 38056, 37907, 37657, 38004, 37911, 37772, 37793, 37983, 37627, 38194, 38030, 37753, 37699, 38010, 38003, 37703, 37519, 37630, 37378, 37695, 37767, 37983, 37696, 37262, 38114, 38034, 37829, 38278, 38119, 38308, 38224, 37791, 37770, 38028, 37730, 37977, 38037, 37758, 38248, 38087, 37592, 37530, 37563, 38161, 37559, 37645, 38077, 37901, 37754, 37943, 37953, 37563, 37783, 38148, 38115, 37764, 37804, 38442, 37786, 37657, 38170, 37895, 37735, 37745, 37931, 37900, 37570, 37471, 38027, 37872, 38165, 37752, 38038, 37647, 37911, 38488, 37809, 37861, 38000, 37511, 37712, 38039, 38020, 37832, 37454, 38132, 37645, 37925],
      "WindowCenter": [10220.0, 10195.0, 10188.0, 10186.0, 10169.0, 10159.0, 10160.0, 10165.0, 10165.0, 10155.0, 10154.0, 10159.0, 10147.0, 10151.0, 10150.0, 10152.0, 10166.0, 10171.0, 10178.0, 10177.0, 10170.0, 10169.0, 10169.0, 10169.0, 10163.0, 10159.0, 10151.0, 10159.0, 10160.0, 10173.0, 10162.0, 10175.0, 10177.0, 10172.0, 10170.0, 10158.0, 10161.0, 10166.0, 10170.0, 10178.0, 10164.0, 10158.0, 10150.0, 10158.0, 10162.0, 10157.0, 10155.0, 10152.0, 10150.0, 10144.0, 10152.0, 10161.0, 10169.0, 10165.0, 10163.0, 10160.0, 10146.0, 10153.0, 10168.0, 10162.0, 10153.0, 10151.0, 10147.0, 10159.0, 10153.0, 10150.0, 10151.0, 10159.0, 10163.0, 10155.0, 10153.0, 10155.0, 10161.0, 10162.0, 10168.0, 10163.0, 10163.0, 10161.0, 10163.0, 10162.0, 10161.0, 10162.0, 10179.0, 10182.0, 10167.0, 10148.0, 10144.0, 10145.0, 10162.0, 10172.0, 10170.0, 10172.0, 10162.0, 10145.0, 10150.0, 10169.0, 10187.0, 10178.0, 10162.0, 10149.0, 10149.0, 10144.0, 10158.0, 10168.0, 10156.0, 10154.0, 10154.0, 10156.0, 10165.0, 10167.0, 10165.0, 10142.0, 10130.0, 10133.0, 10136.0, 10154.0, 10163.0, 10156.0, 10155.0, 10164.0, 10169.0, 10156.0, 10154.0, 10148.0, 10152.0, 10153.0, 10169.0, 10179.0, 10167.0, 10148.0, 10137.0, 10137.0, 10147.0, 10149.0, 10142.0, 10144.0, 10138.0, 10143.0, 10137.0, 10142.0, 10136.0, 10136.0, 10143.0, 10145.0, 10145.0, 10139.0, 10137.0, 10143.0, 10153.0, 10162.0, 10164.0, 10158.0, 10163.0, 10154.0, 10144.0],
      "WindowWidth": [21763.0, 21690.0, 21666.0, 21651.0, 21607.0, 21579.0, 21584.0, 21600.0, 21599.0, 21576.0, 21574.0, 21584.0, 21562.0, 21564.0, 21561.0, 21569.0, 21599.0, 21614.0, 21628.0, 21626.0, 21610.0, 21605.0, 21608.0, 21606.0, 21590.0, 21580.0, 21563.0, 21580.0, 21585.0, 21610.0, 21591.0, 21616.0, 21623.0, 21613.0, 21607.0, 21584.0, 21585.0, 21595.0, 21607.0, 21625.0, 21594.0, 21578.0, 21559.0, 21579.0, 21586.0, 21576.0, 21571.0, 21564.0, 21560.0, 21548.0, 21566.0, 21586.0, 21605.0, 21598.0, 21590.0, 21582.0, 21553.0, 21570.0, 21600.0, 21588.0, 21565.0, 21558.0, 21554.0, 21578.0, 21567.0, 21559.0, 21560.0, 21580.0, 21591.0, 21573.0, 21568.0, 21575.0, 21586.0, 21586.0, 21601.0, 21592.0, 21590.0, 21588.0, 21593.0, 21589.0, 21586.0, 21589.0, 21626.0, 21636.0, 21601.0, 21557.0, 21544.0, 21551.0, 21589.0, 21614.0, 21613.0, 21612.0, 21584.0, 21547.0, 21558.0, 21604.0, 21642.0, 21620.0, 21584.0, 21555.0, 21553.0, 21546.0, 21576.0, 21599.0, 21574.0, 21566.0, 21566.0, 21573.0, 21593.0, 21600.0, 21593.0, 21542.0, 21512.0, 21517.0, 21528.0, 21570.0, 21592.0, 21573.0, 21569.0, 21590.0, 21601.0, 21575.0, 21570.0, 21556.0, 21562.0, 21564.0, 21601.0, 21623.0, 21597.0, 21549.0, 21524.0, 21528.0, 21554.0, 21561.0, 21545.0, 21540.0, 21530.0, 21541.0, 21531.0, 21538.0, 21527.0, 21527.0, 21540.0, 21546.0, 21548.0, 21533.0, 21529.0, 21543.0, 21567.0, 21589.0, 21594.0, 21578.0, 21585.0, 21563.0, 21540.0]
    },
    "slices": {}
  }
}