{
  "AcquisitionMatrixPE": 104,
  "AcquisitionNumber": 1,
  "AcquisitionTime": "11:35:25.985000",
  "BandwidthPerPixelPhaseEncode": 17.17,
  "BaseResolution": 104,
  "BodyPartExamined": "BRAIN",
  "CoilCombinationMethod": "Sum of Squares",
  "ConsistencyInfo": "N4_VE11C_LATEST_20160120",
  "ConversionSoftware": "dcm2niix",
  "ConversionSoftwareVersion": "v1.0.20211006",
  "DerivedVendorReportedEchoSpacing": 0.000560011,
  "DeviceSerialNumber": "167006",
  "DwellTime": 2.1e-06,
  "EchoTime": 0.037,
  "EchoTime1": 0.037,
  "EchoTime2": 0.001,
  "EchoTrainLength": 104,
  "EffectiveEchoSpacing": 0.000560011,
  "FlipAngle": 52,
  "HeudiconvVersion": "0.10.0",
  "ImageComments": "Unaliased MB4/PE3/LB",
  "ImageOrientationPatientDICOM": [0.999448, 0.00945521, 0.0318387, 0.00854756, 0.853107, -0.521666],
  "ImageOrientationText": "Tra>Cor(-31.5)>Sag(1.8)",
  "ImageType": [
    "ORIGINAL",
    "PRIMARY",
    "P",
    "MB",
    "ND",
    "MOSAIC",
    "PHASE"
],
  "ImagingFrequency": 123.259,
  "InPlanePhaseEncodingDirectionDICOM": "COL",
  "InstitutionAddress": "Chemin Queen-Mary 4565,Montreal,District,CA,H3W 1W5",
  "InstitutionName": "IUGM",
  "InstitutionalDepartmentName": "Department",
  "MRAcquisitionType": "2D",
  "MagneticFieldStrength": 3,
  "Manufacturer": "Siemens",
  "ManufacturersModelName": "Prisma_fit",
  "MatrixCoilMode": "SENSE",
  "Modality": "MR",
  "MultibandAccelerationFactor": 4,
  "PartialFourier": 1,
  "PatientPosition": "HFS",
  "PercentPhaseFOV": 100,
  "PercentSampling": 100,
  "PhaseEncodingDirection": "j",
  "PhaseEncodingSteps": 104,
  "PhaseResolution": 1,
  "PixelBandwidth": 2290,
  "ProcedureStepDescription": "localizers^fLoc",
  "ProtocolName": "task_fLoc_run-2",
  "PulseSequenceDetails": "%CustomerSeq%\\cmrr_mbep2d_bold",
  "ReceiveCoilActiveElements": "HC1-7;NC1,2",
  "ReceiveCoilName": "HeadNeck_64",
  "ReconMatrixPE": 104,
  "RepetitionTime": 1.49,
  "SAR": 0.0410031,
  "ScanOptions": "FS",
  "ScanningSequence": "EP",
  "SequenceName": "epfid2d1_104",
  "SequenceVariant": "SK\\SS",
  "SeriesDescription": "task_fLoc_run-2",
  "SeriesNumber": 14,
  "ShimSetting": [625, -7191, -8867, 303, 20, -129, -28, 10],
  "SliceThickness": 2,
  "SliceTiming": [0, 0.785, 0.0975, 0.8825, 0.1975, 0.98, 0.295, 1.0775, 0.3925, 1.1775, 0.49, 1.275, 0.5875, 1.3725, 0.6875, 0, 0.785, 0.0975, 0.8825, 0.1975, 0.98, 0.295, 1.0775, 0.3925, 1.1775, 0.49, 1.275, 0.5875, 1.3725, 0.6875, 0, 0.785, 0.0975, 0.8825, 0.1975, 0.98, 0.295, 1.0775, 0.3925, 1.1775, 0.49, 1.275, 0.5875, 1.3725, 0.6875, 0, 0.785, 0.0975, 0.8825, 0.1975, 0.98, 0.295, 1.0775, 0.3925, 1.1775, 0.49, 1.275, 0.5875, 1.3725, 0.6875],
  "SoftwareVersions": "syngo MR E11",
  "SpacingBetweenSlices": 2,
  "StationName": "MRC35049",
  "TaskName": "fLoc",
  "TotalReadoutTime": 0.0576811,
  "TxRefAmp": 253.872,
  "WipMemBlock": "eb424103-7cde-4aa1-9f0a-d379d9d021d8||Sequence: R016 ve11c/master r/e634e98; Dec 19 2017 11:00:25 by eja",
  "dcmmeta_affine": [
    [-1.998896598815918, 0.01709512621164322, 0.06418853253126144, 104.55990600585938],
    [-0.018910426646471024, 1.7062140703201294, -1.0433006286621094, -48.8296012878418],
    [0.0636773630976677, 1.0433319807052612, 1.7051111459732056, -97.11773681640625],
    [0.0, 0.0, 0.0, 1.0]
],
  "dcmmeta_reorient_transform": [
    [0.0, -1.0, 0.0, 103.0],
    [1.0, 0.0, 0.0, 0.0],
    [0.0, 0.0, 1.0, 0.0],
    [0.0, 0.0, 0.0, 1.0]
],
  "dcmmeta_shape": [104, 104, 60, 155],
  "dcmmeta_slice_dim": 2,
  "dcmmeta_version": 0.6,
  "global": {
    "const": {
      "AcquisitionMatrix": [104, 0, 0, 104],
      "AngioFlag": "N",
      "BitsAllocated": 16,
      "BitsStored": 16,
      "BodyPartExamined": "BRAIN",
      "Columns": 832,
      "EchoNumbers": 1,
      "EchoTime": 37.0,
      "EchoTrainLength": 104,
      "FlipAngle": 52.0,
      "HighBit": 15,
      "ImageOrientationPatient": [0.9994482964872, 0.00945521287459, 0.0318386808511, 0.00854756339924, 0.85310700659624, -0.5216659606073],
      "ImagePositionPatient": [-840.14168961799, -754.85573846252, 366.9397124371],
      "ImageType": [
        "ORIGINAL",
        "PRIMARY",
        "P",
        "MB",
        "ND",
        "MOSAIC"
],
      "ImagedNucleus": "1H",
      "ImagingFrequency": 123.258896,
      "InPlanePhaseEncodingDirection": "COL",
      "LargestImagePixelValue": 4095,
      "MRAcquisitionType": "2D",
      "MagneticFieldStrength": 3.0,
      "Manufacturer": "SIEMENS",
      "ManufacturerModelName": "Prisma_fit",
      "Modality": "MR",
      "NumberOfAverages": 1.0,
      "NumberOfPhaseEncodingSteps": 104,
      "PercentPhaseFieldOfView": 100.0,
      "PercentSampling": 100.0,
      "PerformedProcedureStepStartTime": "112645.911000",
      "PhotometricInterpretation": "MONOCHROME2",
      "PixelBandwidth": 2290.0,
      "PixelRepresentation": 0,
      "PixelSpacing": [2.0, 2.0],
      "ProtocolName": "task_fLoc_run-2",
      "RepetitionTime": 1490.0,
      "RescaleIntercept": -4096.0,
      "RescaleSlope": 2.0,
      "RescaleType": "US",
      "Rows": 832,
      "SAR": 0.04100305568484,
      "SamplesPerPixel": 1,
      "ScanOptions": "FS",
      "ScanningSequence": "EP",
      "SequenceName": "epfid2d1_104",
      "SequenceVariant": [
        "SK",
        "SS"
],
      "SeriesDescription": "task_fLoc_run-2",
      "SeriesNumber": 14,
      "SeriesTime": "113657.640000",
      "SliceLocation": -53.970512648274,
      "SliceThickness": 2.0,
      "SmallestImagePixelValue": 0,
      "SoftwareVersions": "syngo MR E11",
      "SpacingBetweenSlices": 2.0000000566896,
      "SpecificCharacterSet": "ISO_IR 100",
      "StudyID": "1",
      "StudyTime": "112645.842000",
      "TransmitCoilName": "Body",
      "VariableFlipAngleFlag": "N",
      "WindowCenterWidthExplanation": "Algo1",
      "dBdt": 0.0},
    "slices": {}
  },
  "time": {
    "samples": {
      "AcquisitionNumber": [1, 2, 3, 4, 5, 6, 7, 8, 9, 10, 11, 12, 13, 14, 15, 16, 17, 18, 19, 20, 21, 22, 23, 24, 25, 26, 27, 28, 29, 30, 31, 32, 33, 34, 35, 36, 37, 38, 39, 40, 41, 42, 43, 44, 45, 46, 47, 48, 49, 50, 51, 52, 53, 54, 55, 56, 57, 58, 59, 60, 61, 62, 63, 64, 65, 66, 67, 68, 69, 70, 71, 72, 73, 74, 75, 76, 77, 78, 79, 80, 81, 82, 83, 84, 85, 86, 87, 88, 89, 90, 91, 92, 93, 94, 95, 96, 97, 98, 99, 100, 101, 102, 103, 104, 105, 106, 107, 108, 109, 110, 111, 112, 113, 114, 115, 116, 117, 118, 119, 120, 121, 122, 123, 124, 125, 126, 127, 128, 129, 130, 131, 132, 133, 134, 135, 136, 137, 138, 139, 140, 141, 142, 143, 144, 145, 146, 147, 148, 149, 150, 151, 152, 153, 154, 155],
      "AcquisitionTime": ["113525.985000", "113527.475000", "113528.965000", "113530.455000", "113531.945000", "113533.435000", "113534.925000", "113536.415000", "113537.905000", "113539.395000", "113540.885000", "113542.375000", "113543.865000", "113545.355000", "113546.845000", "113548.335000", "113549.825000", "113551.315000", "113552.805000", "113554.295000", "113555.785000", "113557.275000", "113558.765000", "113600.255000", "113601.745000", "113603.235000", "113604.725000", "113606.215000", "113607.705000", "113609.195000", "113610.685000", "113612.175000", "113613.665000", "113615.155000", "113616.645000", "113618.135000", "113619.625000", "113621.115000", "113622.605000", "113624.095000", "113625.585000", "113627.075000", "113628.565000", "113630.055000", "113631.545000", "113633.035000", "113634.525000", "113636.015000", "113637.505000", "113638.995000", "113640.485000", "113641.975000", "113643.465000", "113644.955000", "113646.445000", "113647.935000", "113649.425000", "113650.915000", "113652.405000", "113653.895000", "113655.385000", "113656.875000", "113658.365000", "113659.855000", "113701.345000", "113702.835000", "113704.325000", "113705.815000", "113707.305000", "113708.795000", "113710.285000", "113711.775000", "113713.265000", "113714.755000", "113716.245000", "113717.735000", "113719.225000", "113720.715000", "113722.205000", "113723.695000", "113725.185000", "113726.675000", "113728.165000", "113729.655000", "113731.145000", "113732.635000", "113734.125000", "113735.615000", "113737.105000", "113738.595000", "113740.085000", "113741.575000", "113743.065000", "113744.555000", "113746.045000", "113747.535000", "113749.025000", "113750.515000", "113752.005000", "113753.495000", "113754.985000", "113756.475000", "113757.965000", "113759.455000", "113800.945000", "113802.435000", "113803.925000", "113805.415000", "113806.905000", "113808.395000", "113809.885000", "113811.375000", "113812.865000", "113814.355000", "113815.845000", "113817.335000", "113818.825000", "113820.315000", "113821.805000", "113823.295000", "113824.785000", "113826.275000", "113827.765000", "113829.255000", "113830.745000", "113832.235000", "113833.725000", "113835.215000", "113836.705000", "113838.195000", "113839.685000", "113841.175000", "113842.665000", "113844.155000", "113845.645000", "113847.135000", "113848.625000", "113850.115000", "113851.605000", "113853.095000", "113854.585000", "113856.075000", "113857.565000", "113859.055000", "113900.545000", "113902.035000", "113903.525000", "113905.015000", "113906.505000", "113907.995000", "113909.485000", "113910.975000", "113912.465000", "113913.955000", "113915.445000"],
      "ContentTime": ["113657.642000", "113657.645000", "113657.647000", "113657.650000", "113657.652000", "113657.655000", "113657.658000", "113657.660000", "113657.663000", "113657.665000", "113657.668000", "113657.670000", "113657.672000", "113657.675000", "113657.678000", "113657.680000", "113657.682000", "113657.685000", "113657.688000", "113657.690000", "113657.692000", "113657.695000", "113657.697000", "113657.700000", "113657.702000", "113657.705000", "113657.707000", "113657.710000", "113657.712000", "113657.715000", "113657.717000", "113657.720000", "113657.722000", "113657.725000", "113717.536000", "113717.538000", "113717.541000", "113717.543000", "113717.546000", "113717.548000", "113717.551000", "113717.553000", "113717.556000", "113717.558000", "113717.561000", "113717.564000", "113717.566000", "113717.569000", "113717.571000", "113717.574000", "113717.577000", "113717.586000", "113717.589000", "113717.592000", "113737.552000", "113737.555000", "113737.558000", "113737.560000", "113737.563000", "113737.565000", "113737.568000", "113737.570000", "113737.573000", "113737.575000", "113737.578000", "113737.580000", "113737.583000", "113737.585000", "113737.588000", "113737.590000", "113737.593000", "113737.595000", "113737.598000", "113737.600000", "113737.603000", "113757.546000", "113757.548000", "113757.551000", "113757.553000", "113757.556000", "113757.558000", "113757.561000", "113757.563000", "113757.566000", "113757.569000", "113757.571000", "113757.573000", "113757.576000", "113757.578000", "113757.581000", "113757.583000", "113757.586000", "113757.589000", "113757.591000", "113757.593000", "113837.618000", "113837.620000", "113837.623000", "113837.625000", "113837.628000", "113837.635000", "113837.638000", "113837.640000", "113837.643000", "113837.645000", "113837.648000", "113837.650000", "113837.653000", "113837.655000", "113837.658000", "113837.660000", "113837.663000", "113837.665000", "113837.668000", "113837.670000", "113837.673000", "113837.675000", "113837.678000", "113837.680000", "113837.683000", "113837.685000", "113837.688000", "113837.690000", "113837.693000", "113837.695000", "113837.698000", "113837.700000", "113917.574000", "113917.576000", "113917.579000", "113917.582000", "113917.584000", "113917.586000", "113917.589000", "113917.592000", "113917.594000", "113917.597000", "113917.599000", "113917.602000", "113917.604000", "113917.606000", "113917.609000", "113917.612000", "113917.615000", "113917.617000", "113917.620000", "113917.622000", "113917.625000", "113917.627000", "113917.630000", "113917.632000", "113917.635000", "113917.637000", "113917.640000", "113917.859000"],
      "InstanceCreationTime": ["113657.642000", "113657.645000", "113657.647000", "113657.650000", "113657.652000", "113657.655000", "113657.658000", "113657.660000", "113657.663000", "113657.665000", "113657.668000", "113657.670000", "113657.672000", "113657.675000", "113657.678000", "113657.680000", "113657.682000", "113657.685000", "113657.688000", "113657.690000", "113657.692000", "113657.695000", "113657.697000", "113657.700000", "113657.702000", "113657.705000", "113657.707000", "113657.710000", "113657.712000", "113657.715000", "113657.717000", "113657.720000", "113657.722000", "113657.725000", "113717.536000", "113717.538000", "113717.541000", "113717.543000", "113717.546000", "113717.548000", "113717.551000", "113717.553000", "113717.556000", "113717.558000", "113717.561000", "113717.564000", "113717.566000", "113717.569000", "113717.571000", "113717.574000", "113717.577000", "113717.586000", "113717.589000", "113717.592000", "113737.552000", "113737.555000", "113737.558000", "113737.560000", "113737.563000", "113737.565000", "113737.568000", "113737.570000", "113737.573000", "113737.575000", "113737.578000", "113737.580000", "113737.583000", "113737.585000", "113737.588000", "113737.590000", "113737.593000", "113737.595000", "113737.598000", "113737.600000", "113737.603000", "113757.546000", "113757.548000", "113757.551000", "113757.553000", "113757.556000", "113757.558000", "113757.561000", "113757.563000", "113757.566000", "113757.569000", "113757.571000", "113757.573000", "113757.576000", "113757.578000", "113757.581000", "113757.583000", "113757.586000", "113757.589000", "113757.591000", "113757.593000", "113837.618000", "113837.620000", "113837.623000", "113837.625000", "113837.628000", "113837.635000", "113837.638000", "113837.640000", "113837.643000", "113837.645000", "113837.648000", "113837.650000", "113837.653000", "113837.655000", "113837.658000", "113837.660000", "113837.663000", "113837.665000", "113837.668000", "113837.670000", "113837.673000", "113837.675000", "113837.678000", "113837.680000", "113837.683000", "113837.685000", "113837.688000", "113837.690000", "113837.693000", "113837.695000", "113837.698000", "113837.700000", "113917.574000", "113917.576000", "113917.579000", "113917.582000", "113917.584000", "113917.586000", "113917.589000", "113917.592000", "113917.594000", "113917.597000", "113917.599000", "113917.602000", "113917.604000", "113917.606000", "113917.609000", "113917.612000", "113917.615000", "113917.617000", "113917.620000", "113917.622000", "113917.625000", "113917.627000", "113917.630000", "113917.632000", "113917.635000", "113917.637000", "113917.640000", "113917.859000"],
      "InstanceNumber": [1, 2, 3, 4, 5, 6, 7, 8, 9, 10, 11, 12, 13, 14, 15, 16, 17, 18, 19, 20, 21, 22, 23, 24, 25, 26, 27, 28, 29, 30, 31, 32, 33, 34, 35, 36, 37, 38, 39, 40, 41, 42, 43, 44, 45, 46, 47, 48, 49, 50, 51, 52, 53, 54, 55, 56, 57, 58, 59, 60, 61, 62, 63, 64, 65, 66, 67, 68, 69, 70, 71, 72, 73, 74, 75, 76, 77, 78, 79, 80, 81, 82, 83, 84, 85, 86, 87, 88, 89, 90, 91, 92, 93, 94, 95, 96, 97, 98, 99, 100, 101, 102, 103, 104, 105, 106, 107, 108, 109, 110, 111, 112, 113, 114, 115, 116, 117, 118, 119, 120, 121, 122, 123, 124, 125, 126, 127, 128, 129, 130, 131, 132, 133, 134, 135, 136, 137, 138, 139, 140, 141, 142, 143, 144, 145, 146, 147, 148, 149, 150, 151, 152, 153, 154, 155],
      "WindowCenter": [4764.0, 4732.0, 4748.0, 4726.0, 4752.0, 4756.0, 4784.0, 4784.0, 4786.0, 4788.0, 4796.0, 4840.0, 4806.0, 4760.0, 4724.0, 4718.0, 4720.0, 4720.0, 4728.0, 4758.0, 4792.0, 4796.0, 4792.0, 4794.0, 4788.0, 4800.0, 4804.0, 4764.0, 4752.0, 4724.0, 4740.0, 4728.0, 4762.0, 4766.0, 4792.0, 4786.0, 4788.0, 4790.0, 4758.0, 4760.0, 4766.0, 4760.0, 4754.0, 4750.0, 4758.0, 4790.0, 4762.0, 4796.0, 4786.0, 4766.0, 4766.0, 4752.0, 4762.0, 4752.0, 4760.0, 4766.0, 4762.0, 4788.0, 4786.0, 4762.0, 4752.0, 4760.0, 4760.0, 4762.0, 4764.0, 4760.0, 4794.0, 4786.0, 4758.0, 4794.0, 4796.0, 4750.0, 4720.0, 4742.0, 4758.0, 4754.0, 4794.0, 4794.0, 4796.0, 4792.0, 4764.0, 4764.0, 4754.0, 4764.0, 4758.0, 4760.0, 4760.0, 4756.0, 4792.0, 4788.0, 4790.0, 4768.0, 4760.0, 4766.0, 4756.0, 4792.0, 4760.0, 4762.0, 4766.0, 4760.0, 4766.0, 4766.0, 4758.0, 4762.0, 4756.0, 4762.0, 4760.0, 4754.0, 4766.0, 4762.0, 4756.0, 4752.0, 4794.0, 4806.0, 4788.0, 4792.0, 4762.0, 4726.0, 4754.0, 4748.0, 4754.0, 4764.0, 4758.0, 4792.0, 4790.0, 4788.0, 4790.0, 4762.0, 4760.0, 4758.0, 4758.0, 4758.0, 4752.0, 4788.0, 4842.0, 4840.0, 4768.0, 4716.0, 4714.0, 4736.0, 4742.0, 4760.0, 4764.0, 4796.0, 4796.0, 4802.0, 4794.0, 4764.0, 4760.0, 4752.0, 4764.0, 4808.0, 4842.0, 4806.0, 4726.0],
      "WindowWidth": [18542.0, 18502.0, 18532.0, 18498.0, 18532.0, 18536.0, 18574.0, 18568.0, 18570.0, 18568.0, 18574.0, 18590.0, 18566.0, 18536.0, 18502.0, 18498.0, 18506.0, 18500.0, 18506.0, 18540.0, 18574.0, 18576.0, 18568.0, 18578.0, 18572.0, 18570.0, 18570.0, 18538.0, 18536.0, 18502.0, 18536.0, 18498.0, 18536.0, 18546.0, 18572.0, 18570.0, 18572.0, 18570.0, 18538.0, 18542.0, 18542.0, 18540.0, 18534.0, 18536.0, 18538.0, 18570.0, 18540.0, 18572.0, 18568.0, 18542.0, 18540.0, 18534.0, 18540.0, 18538.0, 18538.0, 18544.0, 18538.0, 18572.0, 18570.0, 18540.0, 18540.0, 18542.0, 18540.0, 18542.0, 18542.0, 18546.0, 18574.0, 18570.0, 18544.0, 18566.0, 18568.0, 18538.0, 18504.0, 18536.0, 18540.0, 18534.0, 18576.0, 18578.0, 18576.0, 18574.0, 18542.0, 18542.0, 18538.0, 18542.0, 18538.0, 18544.0, 18536.0, 18542.0, 18574.0, 18570.0, 18568.0, 18536.0, 18542.0, 18538.0, 18536.0, 18574.0, 18540.0, 18542.0, 18540.0, 18540.0, 18542.0, 18540.0, 18540.0, 18540.0, 18536.0, 18538.0, 18538.0, 18536.0, 18540.0, 18544.0, 18536.0, 18534.0, 18574.0, 18568.0, 18570.0, 18570.0, 18540.0, 18504.0, 18536.0, 18534.0, 18536.0, 18546.0, 18540.0, 18572.0, 18570.0, 18568.0, 18572.0, 18542.0, 18538.0, 18538.0, 18538.0, 18538.0, 18540.0, 18572.0, 18582.0, 18582.0, 18536.0, 18506.0, 18504.0, 18536.0, 18538.0, 18534.0, 18538.0, 18566.0, 18570.0, 18568.0, 18572.0, 18538.0, 18536.0, 18534.0, 18536.0, 18554.0, 18570.0, 18550.0, 18500.0]
    },
    "slices": {}
  }
}