{
  "AcquisitionMatrixPE": 104,
  "AcquisitionNumber": 1,
  "AcquisitionTime": "11:30:13.800000",
  "BandwidthPerPixelPhaseEncode": 17.17,
  "BaseResolution": 104,
  "BodyPartExamined": "BRAIN",
  "CoilCombinationMethod": "Sum of Squares",
  "ConsistencyInfo": "N4_VE11C_LATEST_20160120",
  "ConversionSoftware": "dcm2niix",
  "ConversionSoftwareVersion": "v1.0.20211006",
  "DerivedVendorReportedEchoSpacing": 0.000560011,
  "DeviceSerialNumber": "167006",
  "DwellTime": 2.1e-06,
  "EchoTime": 0.037,
  "EchoTrainLength": 104,
  "EffectiveEchoSpacing": 0.000560011,
  "FlipAngle": 52,
  "HeudiconvVersion": "0.10.0",
  "ImageComments": "Unaliased MB4/PE3/LB",
  "ImageOrientationPatientDICOM": [0.999448, 0.00945521, 0.0318387, 0.00854756, 0.853107, -0.521666],
  "ImageOrientationText": "Tra>Cor(-31.5)>Sag(1.8)",
  "ImageType": [
    "ORIGINAL",
    "PRIMARY",
    "M",
    "MB",
    "ND",
    "MOSAIC"
],
  "ImagingFrequency": 123.259,
  "InPlanePhaseEncodingDirectionDICOM": "COL",
  "InstitutionAddress": "Chemin Queen-Mary 4565,Montreal,District,CA,H3W 1W5",
  "InstitutionName": "IUGM",
  "InstitutionalDepartmentName": "Department",
  "MRAcquisitionType": "2D",
  "MagneticFieldStrength": 3,
  "Manufacturer": "Siemens",
  "ManufacturersModelName": "Prisma_fit",
  "MatrixCoilMode": "SENSE",
  "Modality": "MR",
  "MultibandAccelerationFactor": 4,
  "PartialFourier": 1,
  "PatientPosition": "HFS",
  "PercentPhaseFOV": 100,
  "PercentSampling": 100,
  "PhaseEncodingDirection": "j",
  "PhaseEncodingSteps": 104,
  "PhaseResolution": 1,
  "PixelBandwidth": 2290,
  "ProcedureStepDescription": "localizers^fLoc",
  "ProtocolName": "task_fLoc_run-1",
  "PulseSequenceDetails": "%CustomerSeq%\\cmrr_mbep2d_bold",
  "ReceiveCoilActiveElements": "HC1-7;NC1,2",
  "ReceiveCoilName": "HeadNeck_64",
  "ReconMatrixPE": 104,
  "RepetitionTime": 1.49,
  "SAR": 0.0410031,
  "ScanOptions": "FS",
  "ScanningSequence": "EP",
  "SequenceName": "epfid2d1_104",
  "SequenceVariant": "SK\\SS",
  "SeriesDescription": "task_fLoc_run-1",
  "SeriesNumber": 10,
  "ShimSetting": [625, -7191, -8867, 303, 20, -129, -28, 10],
  "SliceThickness": 2,
  "SliceTiming": [0, 0.785, 0.0975, 0.8825, 0.1975, 0.98, 0.295, 1.0775, 0.3925, 1.1775, 0.49, 1.275, 0.5875, 1.3725, 0.6875, 0, 0.785, 0.0975, 0.8825, 0.1975, 0.98, 0.295, 1.0775, 0.3925, 1.1775, 0.49, 1.275, 0.5875, 1.3725, 0.6875, 0, 0.785, 0.0975, 0.8825, 0.1975, 0.98, 0.295, 1.0775, 0.3925, 1.1775, 0.49, 1.275, 0.5875, 1.3725, 0.6875, 0, 0.785, 0.0975, 0.8825, 0.1975, 0.98, 0.295, 1.0775, 0.3925, 1.1775, 0.49, 1.275, 0.5875, 1.3725, 0.6875],
  "SoftwareVersions": "syngo MR E11",
  "SpacingBetweenSlices": 2,
  "StationName": "MRC35049",
  "TaskName": "fLoc",
  "TotalReadoutTime": 0.0576811,
  "TxRefAmp": 253.872,
  "WipMemBlock": "db2e4f50-5845-4ff8-adba-b0eefd7f4cb6||Sequence: R016 ve11c/master r/e634e98; Dec 19 2017 11:00:25 by eja",
  "dcmmeta_affine": [
    [-1.998896598815918, 0.01709512621164322, 0.06418853253126144, 104.55990600585938],
    [-0.018910426646471024, 1.7062140703201294, -1.0433006286621094, -48.8296012878418],
    [0.0636773630976677, 1.0433319807052612, 1.7051111459732056, -97.11773681640625],
    [0.0, 0.0, 0.0, 1.0]
],
  "dcmmeta_reorient_transform": [
    [0.0, -1.0, 0.0, 103.0],
    [1.0, 0.0, 0.0, 0.0],
    [0.0, 0.0, 1.0, 0.0],
    [0.0, 0.0, 0.0, 1.0]
],
  "dcmmeta_shape": [104, 104, 60, 155],
  "dcmmeta_slice_dim": 2,
  "dcmmeta_version": 0.6,
  "global": {
    "const": {
      "AcquisitionMatrix": [104, 0, 0, 104],
      "AngioFlag": "N",
      "BitsAllocated": 16,
      "BitsStored": 16,
      "BodyPartExamined": "BRAIN",
      "Columns": 832,
      "EchoNumbers": 1,
      "EchoTime": 37.0,
      "EchoTrainLength": 104,
      "FlipAngle": 52.0,
      "HighBit": 15,
      "ImageOrientationPatient": [0.9994482964872, 0.00945521287459, 0.0318386808511, 0.00854756339924, 0.85310700659624, -0.5216659606073],
      "ImagePositionPatient": [-840.14168961799, -754.85573846252, 366.9397124371],
      "ImageType": [
        "ORIGINAL",
        "PRIMARY",
        "M",
        "MB",
        "ND",
        "MOSAIC"
],
      "ImagedNucleus": "1H",
      "ImagingFrequency": 123.258897,
      "InPlanePhaseEncodingDirection": "COL",
      "MRAcquisitionType": "2D",
      "MagneticFieldStrength": 3.0,
      "Manufacturer": "SIEMENS",
      "ManufacturerModelName": "Prisma_fit",
      "Modality": "MR",
      "NumberOfAverages": 1.0,
      "NumberOfPhaseEncodingSteps": 104,
      "PercentPhaseFieldOfView": 100.0,
      "PercentSampling": 100.0,
      "PerformedProcedureStepStartTime": "112645.911000",
      "PhotometricInterpretation": "MONOCHROME2",
      "PixelBandwidth": 2290.0,
      "PixelRepresentation": 0,
      "PixelSpacing": [2.0, 2.0],
      "ProtocolName": "task_fLoc_run-1",
      "RepetitionTime": 1490.0,
      "Rows": 832,
      "SAR": 0.04100305568484,
      "SamplesPerPixel": 1,
      "ScanOptions": "FS",
      "ScanningSequence": "EP",
      "SequenceName": "epfid2d1_104",
      "SequenceVariant": [
        "SK",
        "SS"
],
      "SeriesDescription": "task_fLoc_run-1",
      "SeriesNumber": 10,
      "SeriesTime": "113125.844000",
      "SliceLocation": -53.970512648274,
      "SliceThickness": 2.0,
      "SmallestImagePixelValue": 0,
      "SoftwareVersions": "syngo MR E11",
      "SpacingBetweenSlices": 2.0000000566896,
      "SpecificCharacterSet": "ISO_IR 100",
      "StudyID": "1",
      "StudyTime": "112645.842000",
      "TransmitCoilName": "Body",
      "VariableFlipAngleFlag": "N",
      "WindowCenterWidthExplanation": "Algo1",
      "dBdt": 0.0},
    "slices": {}
  },
  "time": {
    "samples": {
      "AcquisitionNumber": [1, 2, 3, 4, 5, 6, 7, 8, 9, 10, 11, 12, 13, 14, 15, 16, 17, 18, 19, 20, 21, 22, 23, 24, 25, 26, 27, 28, 29, 30, 31, 32, 33, 34, 35, 36, 37, 38, 39, 40, 41, 42, 43, 44, 45, 46, 47, 48, 49, 50, 51, 52, 53, 54, 55, 56, 57, 58, 59, 60, 61, 62, 63, 64, 65, 66, 67, 68, 69, 70, 71, 72, 73, 74, 75, 76, 77, 78, 79, 80, 81, 82, 83, 84, 85, 86, 87, 88, 89, 90, 91, 92, 93, 94, 95, 96, 97, 98, 99, 100, 101, 102, 103, 104, 105, 106, 107, 108, 109, 110, 111, 112, 113, 114, 115, 116, 117, 118, 119, 120, 121, 122, 123, 124, 125, 126, 127, 128, 129, 130, 131, 132, 133, 134, 135, 136, 137, 138, 139, 140, 141, 142, 143, 144, 145, 146, 147, 148, 149, 150, 151, 152, 153, 154, 155],
      "AcquisitionTime": ["113013.800000", "113015.290000", "113016.780000", "113018.270000", "113019.760000", "113021.250000", "113022.740000", "113024.230000", "113025.720000", "113027.210000", "113028.700000", "113030.190000", "113031.680000", "113033.170000", "113034.660000", "113036.150000", "113037.640000", "113039.130000", "113040.620000", "113042.110000", "113043.600000", "113045.090000", "113046.580000", "113048.070000", "113049.560000", "113051.050000", "113052.540000", "113054.030000", "113055.520000", "113057.010000", "113058.500000", "113059.990000", "113101.480000", "113102.970000", "113104.460000", "113105.950000", "113107.440000", "113108.930000", "113110.420000", "113111.910000", "113113.400000", "113114.890000", "113116.380000", "113117.870000", "113119.360000", "113120.850000", "113122.340000", "113123.830000", "113125.320000", "113126.810000", "113128.300000", "113129.790000", "113131.280000", "113132.770000", "113134.260000", "113135.750000", "113137.240000", "113138.730000", "113140.220000", "113141.710000", "113143.200000", "113144.690000", "113146.180000", "113147.670000", "113149.160000", "113150.650000", "113152.140000", "113153.630000", "113155.120000", "113156.610000", "113158.100000", "113159.590000", "113201.080000", "113202.570000", "113204.060000", "113205.550000", "113207.040000", "113208.530000", "113210.020000", "113211.510000", "113213.000000", "113214.490000", "113215.980000", "113217.470000", "113218.960000", "113220.450000", "113221.940000", "113223.430000", "113224.920000", "113226.410000", "113227.900000", "113229.390000", "113230.880000", "113232.370000", "113233.860000", "113235.350000", "113236.840000", "113238.330000", "113239.820000", "113241.310000", "113242.800000", "113244.290000", "113245.780000", "113247.270000", "113248.760000", "113250.250000", "113251.740000", "113253.230000", "113254.720000", "113256.210000", "113257.700000", "113259.190000", "113300.680000", "113302.170000", "113303.660000", "113305.150000", "113306.640000", "113308.130000", "113309.620000", "113311.110000", "113312.600000", "113314.090000", "113315.580000", "113317.070000", "113318.560000", "113320.050000", "113321.540000", "113323.030000", "113324.520000", "113326.010000", "113327.500000", "113328.990000", "113330.480000", "113331.970000", "113333.460000", "113334.950000", "113336.440000", "113337.930000", "113339.420000", "113340.910000", "113342.400000", "113343.890000", "113345.380000", "113346.870000", "113348.360000", "113349.850000", "113351.340000", "113352.830000", "113354.320000", "113355.810000", "113357.300000", "113358.790000", "113400.280000", "113401.770000", "113403.260000"],
      "ContentTime": ["113125.847000", "113125.851000", "113125.855000", "113125.858000", "113125.864000", "113125.868000", "113125.871000", "113125.874000", "113125.878000", "113125.881000", "113125.884000", "113125.888000", "113125.891000", "113125.894000", "113125.898000", "113125.901000", "113125.904000", "113145.815000", "113145.825000", "113145.828000", "113145.831000", "113145.834000", "113145.838000", "113145.841000", "113145.844000", "113145.848000", "113145.851000", "113145.854000", "113145.858000", "113145.861000", "113145.865000", "113145.870000", "113145.874000", "113145.877000", "113145.881000", "113145.885000", "113145.888000", "113205.815000", "113205.832000", "113205.835000", "113205.838000", "113205.841000", "113205.845000", "113205.848000", "113205.852000", "113205.855000", "113205.858000", "113205.862000", "113205.865000", "113205.868000", "113205.872000", "113205.875000", "113205.879000", "113205.882000", "113205.885000", "113205.889000", "113205.892000", "113205.895000", "113225.814000", "113225.818000", "113225.821000", "113225.824000", "113225.828000", "113225.831000", "113225.834000", "113225.838000", "113225.841000", "113225.844000", "113225.848000", "113225.851000", "113225.855000", "113225.858000", "113225.861000", "113225.865000", "113225.868000", "113225.871000", "113225.874000", "113225.878000", "113245.815000", "113245.819000", "113245.822000", "113245.825000", "113245.828000", "113245.832000", "113245.843000", "113245.847000", "113245.850000", "113245.853000", "113245.857000", "113245.860000", "113245.863000", "113245.867000", "113245.870000", "113245.873000", "113245.877000", "113245.880000", "113245.883000", "113245.887000", "113325.815000", "113325.819000", "113325.822000", "113325.825000", "113325.829000", "113325.832000", "113325.835000", "113325.839000", "113325.842000", "113325.845000", "113325.848000", "113325.852000", "113325.855000", "113325.859000", "113325.862000", "113325.865000", "113325.868000", "113325.872000", "113325.875000", "113325.878000", "113325.882000", "113325.885000", "113325.888000", "113325.892000", "113325.895000", "113325.898000", "113325.902000", "113325.905000", "113325.909000", "113325.912000", "113405.816000", "113405.819000", "113405.823000", "113405.830000", "113405.834000", "113405.838000", "113405.841000", "113405.845000", "113405.848000", "113405.852000", "113405.856000", "113405.861000", "113405.865000", "113405.869000", "113405.873000", "113405.877000", "113405.881000", "113405.884000", "113405.888000", "113405.891000", "113405.894000", "113405.898000", "113405.901000", "113405.904000", "113405.908000", "113405.911000", "113406.065000"],
      "InstanceCreationTime": ["113125.847000", "113125.851000", "113125.855000", "113125.858000", "113125.864000", "113125.868000", "113125.871000", "113125.874000", "113125.878000", "113125.881000", "113125.884000", "113125.888000", "113125.891000", "113125.894000", "113125.898000", "113125.901000", "113125.904000", "113145.815000", "113145.825000", "113145.828000", "113145.831000", "113145.834000", "113145.838000", "113145.841000", "113145.844000", "113145.848000", "113145.851000", "113145.854000", "113145.858000", "113145.861000", "113145.865000", "113145.870000", "113145.874000", "113145.877000", "113145.881000", "113145.885000", "113145.888000", "113205.815000", "113205.832000", "113205.835000", "113205.838000", "113205.841000", "113205.845000", "113205.848000", "113205.852000", "113205.855000", "113205.858000", "113205.862000", "113205.865000", "113205.868000", "113205.872000", "113205.875000", "113205.879000", "113205.882000", "113205.885000", "113205.889000", "113205.892000", "113205.895000", "113225.814000", "113225.818000", "113225.821000", "113225.824000", "113225.828000", "113225.831000", "113225.834000", "113225.838000", "113225.841000", "113225.844000", "113225.848000", "113225.851000", "113225.855000", "113225.858000", "113225.861000", "113225.865000", "113225.868000", "113225.871000", "113225.874000", "113225.878000", "113245.815000", "113245.819000", "113245.822000", "113245.825000", "113245.828000", "113245.832000", "113245.843000", "113245.847000", "113245.850000", "113245.853000", "113245.857000", "113245.860000", "113245.863000", "113245.867000", "113245.870000", "113245.873000", "113245.877000", "113245.880000", "113245.883000", "113245.887000", "113325.815000", "113325.819000", "113325.822000", "113325.825000", "113325.829000", "113325.832000", "113325.835000", "113325.839000", "113325.842000", "113325.845000", "113325.848000", "113325.852000", "113325.855000", "113325.859000", "113325.862000", "113325.865000", "113325.868000", "113325.872000", "113325.875000", "113325.878000", "113325.882000", "113325.885000", "113325.888000", "113325.892000", "113325.895000", "113325.898000", "113325.902000", "113325.905000", "113325.909000", "113325.912000", "113405.816000", "113405.819000", "113405.823000", "113405.830000", "113405.834000", "113405.838000", "113405.841000", "113405.845000", "113405.848000", "113405.852000", "113405.856000", "113405.861000", "113405.865000", "113405.869000", "113405.873000", "113405.877000", "113405.881000", "113405.884000", "113405.888000", "113405.891000", "113405.894000", "113405.898000", "113405.901000", "113405.904000", "113405.908000", "113405.911000", "113406.065000"],
      "InstanceNumber": [1, 2, 3, 4, 5, 6, 7, 8, 9, 10, 11, 12, 13, 14, 15, 16, 17, 18, 19, 20, 21, 22, 23, 24, 25, 26, 27, 28, 29, 30, 31, 32, 33, 34, 35, 36, 37, 38, 39, 40, 41, 42, 43, 44, 45, 46, 47, 48, 49, 50, 51, 52, 53, 54, 55, 56, 57, 58, 59, 60, 61, 62, 63, 64, 65, 66, 67, 68, 69, 70, 71, 72, 73, 74, 75, 76, 77, 78, 79, 80, 81, 82, 83, 84, 85, 86, 87, 88, 89, 90, 91, 92, 93, 94, 95, 96, 97, 98, 99, 100, 101, 102, 103, 104, 105, 106, 107, 108, 109, 110, 111, 112, 113, 114, 115, 116, 117, 118, 119, 120, 121, 122, 123, 124, 125, 126, 127, 128, 129, 130, 131, 132, 133, 134, 135, 136, 137, 138, 139, 140, 141, 142, 143, 144, 145, 146, 147, 148, 149, 150, 151, 152, 153, 154, 155],
      "LargestImagePixelValue": [47146, 45597, 44273, 44005, 43669, 43401, 43500, 43932, 43595, 43459, 44530, 44181, 43861, 44179, 43996, 44541, 43494, 44546, 44305, 44588, 44168, 43642, 43805, 43663, 44066, 44029, 43673, 43415, 43780, 43233, 45296, 45168, 43188, 43869, 45158, 45821, 43664, 44243, 44328, 43232, 45193, 44157, 43036, 44748, 44265, 43867, 44482, 43820, 45377, 44397, 44007, 45209, 43811, 44509, 44605, 44975, 44554, 43864, 43127, 43955, 44062, 43267, 45336, 43742, 44293, 45128, 44384, 44556, 43842, 44150, 44121, 44112, 43700, 43700, 46046, 44558, 45050, 46872, 45777, 42984, 43050, 44556, 44438, 44913, 44264, 44348, 43118, 43824, 43412, 43277, 44471, 43176, 43792, 44861, 44295, 43444, 42948, 43136, 43749, 43121, 42908, 43166, 43144, 45360, 44362, 44019, 45724, 45199, 43345, 43910, 44151, 44067, 43964, 43984, 43778, 43531, 43320, 43081, 44088, 43963, 43794, 44738, 44082, 43147, 44340, 43537, 43920, 43183, 43186, 44246, 44010, 43270, 43518, 43459, 43981, 43520, 44038, 45215, 45509, 43349, 45908, 44608, 43855, 42989, 43980, 44068, 43726, 44475, 43503, 44896, 46021, 45836, 45768, 46854, 44620],
      "WindowCenter": [11160.0, 11061.0, 11005.0, 10980.0, 10960.0, 10958.0, 10965.0, 10983.0, 10987.0, 10996.0, 11008.0, 11005.0, 10989.0, 11003.0, 10976.0, 10980.0, 10997.0, 11011.0, 11038.0, 11028.0, 11042.0, 11041.0, 11037.0, 10990.0, 10972.0, 10988.0, 10989.0, 10988.0, 10977.0, 10958.0, 10980.0, 10971.0, 10936.0, 10922.0, 10973.0, 11021.0, 11026.0, 11040.0, 11023.0, 10998.0, 11022.0, 11007.0, 11001.0, 11017.0, 10998.0, 10989.0, 10992.0, 10981.0, 11004.0, 11002.0, 11007.0, 11008.0, 10989.0, 10999.0, 10994.0, 11003.0, 10977.0, 10977.0, 11011.0, 11050.0, 11069.0, 11048.0, 11053.0, 10993.0, 10970.0, 10985.0, 10977.0, 11005.0, 11014.0, 11005.0, 11017.0, 11030.0, 11020.0, 11006.0, 11047.0, 11034.0, 11043.0, 11052.0, 11011.0, 10949.0, 10951.0, 10999.0, 11011.0, 11014.0, 11003.0, 10998.0, 10974.0, 10975.0, 10967.0, 10960.0, 10973.0, 10975.0, 11006.0, 11017.0, 11006.0, 11026.0, 11030.0, 11035.0, 11036.0, 11038.0, 11043.0, 11040.0, 11013.0, 11023.0, 11023.0, 11035.0, 11033.0, 10991.0, 10947.0, 10967.0, 11004.0, 11025.0, 11009.0, 10996.0, 10978.0, 10961.0, 10947.0, 10951.0, 10976.0, 10984.0, 11002.0, 11011.0, 11008.0, 11018.0, 11033.0, 11016.0, 11012.0, 11016.0, 11038.0, 11057.0, 11041.0, 11001.0, 10984.0, 10987.0, 10985.0, 10977.0, 10972.0, 10983.0, 10990.0, 10987.0, 11023.0, 10986.0, 10962.0, 10974.0, 11014.0, 11028.0, 11016.0, 10994.0, 10947.0, 10949.0, 11007.0, 11063.0, 11072.0, 11042.0, 10978.0],
      "WindowWidth": [24093.0, 23825.0, 23681.0, 23612.0, 23563.0, 23554.0, 23570.0, 23608.0, 23619.0, 23638.0, 23664.0, 23661.0, 23622.0, 23655.0, 23599.0, 23606.0, 23647.0, 23676.0, 23738.0, 23713.0, 23744.0, 23745.0, 23730.0, 23625.0, 23580.0, 23613.0, 23622.0, 23617.0, 23593.0, 23554.0, 23598.0, 23572.0, 23511.0, 23468.0, 23577.0, 23681.0, 23703.0, 23733.0, 23696.0, 23642.0, 23688.0, 23658.0, 23650.0, 23679.0, 23637.0, 23616.0, 23620.0, 23600.0, 23643.0, 23644.0, 23658.0, 23657.0, 23618.0, 23637.0, 23626.0, 23642.0, 23588.0, 23590.0, 23671.0, 23755.0, 23799.0, 23757.0, 23758.0, 23628.0, 23572.0, 23603.0, 23586.0, 23652.0, 23676.0, 23654.0, 23678.0, 23708.0, 23688.0, 23653.0, 23740.0, 23716.0, 23738.0, 23751.0, 23660.0, 23528.0, 23527.0, 23641.0, 23664.0, 23667.0, 23639.0, 23624.0, 23576.0, 23576.0, 23563.0, 23552.0, 23574.0, 23584.0, 23649.0, 23671.0, 23649.0, 23695.0, 23711.0, 23719.0, 23719.0, 23728.0, 23744.0, 23738.0, 23676.0, 23684.0, 23689.0, 23718.0, 23708.0, 23613.0, 23520.0, 23559.0, 23643.0, 23690.0, 23657.0, 23623.0, 23581.0, 23545.0, 23519.0, 23528.0, 23577.0, 23603.0, 23643.0, 23662.0, 23656.0, 23682.0, 23715.0, 23683.0, 23670.0, 23680.0, 23731.0, 23771.0, 23735.0, 23649.0, 23609.0, 23610.0, 23604.0, 23583.0, 23572.0, 23593.0, 23602.0, 23611.0, 23684.0, 23607.0, 23555.0, 23582.0, 23668.0, 23703.0, 23677.0, 23621.0, 23519.0, 23515.0, 23647.0, 23792.0, 23800.0, 23728.0, 23591.0]
    },
    "slices": {}
  }
}