{
  "AcquisitionMatrixPE": 104,
  "AcquisitionNumber": 1,
  "AcquisitionTime": "14:09:22.030000",
  "BandwidthPerPixelPhaseEncode": 17.17,
  "BaseResolution": 104,
  "BodyPartExamined": "BRAIN",
  "CoilCombinationMethod": "Sum of Squares",
  "ConsistencyInfo": "N4_VE11C_LATEST_20160120",
  "ConversionSoftware": "dcm2niix",
  "ConversionSoftwareVersion": "v1.0.20211006",
  "DerivedVendorReportedEchoSpacing": 0.000560011,
  "DeviceSerialNumber": "167006",
  "DwellTime": 2.1e-06,
  "EchoTime": 0.037,
  "EchoTrainLength": 104,
  "EffectiveEchoSpacing": 0.000560011,
  "FlipAngle": 52,
  "HeudiconvVersion": "0.10.0",
  "ImageComments": "Unaliased MB4/PE3/LB",
  "ImageOrientationPatientDICOM": [0.998397, 0.0134544, 0.0549851, 0.000522786, 0.969111, -0.246626],
  "ImageOrientationText": "Tra>Cor(-14.3)>Sag(3.2)",
  "ImageType": [
    "ORIGINAL",
    "PRIMARY",
    "M",
    "MB",
    "ND",
    "MOSAIC"
],
  "ImagingFrequency": 123.259,
  "InPlanePhaseEncodingDirectionDICOM": "COL",
  "InstitutionAddress": "Chemin Queen-Mary 4565,Montreal,District,CA,H3W 1W5",
  "InstitutionName": "IUGM",
  "InstitutionalDepartmentName": "Department",
  "MRAcquisitionType": "2D",
  "MagneticFieldStrength": 3,
  "Manufacturer": "Siemens",
  "ManufacturersModelName": "Prisma_fit",
  "MatrixCoilMode": "SENSE",
  "Modality": "MR",
  "MultibandAccelerationFactor": 4,
  "PartialFourier": 1,
  "PatientPosition": "HFS",
  "PercentPhaseFOV": 100,
  "PercentSampling": 100,
  "PhaseEncodingDirection": "j",
  "PhaseEncodingSteps": 104,
  "PhaseResolution": 1,
  "PixelBandwidth": 2290,
  "ProcedureStepDescription": "localizers^floc",
  "ProtocolName": "func_task-flocdev_run-2",
  "PulseSequenceDetails": "%CustomerSeq%\\cmrr_mbep2d_bold",
  "ReceiveCoilActiveElements": "HC1-7;NC1,2",
  "ReceiveCoilName": "HeadNeck_64",
  "ReconMatrixPE": 104,
  "RepetitionTime": 1.49,
  "SAR": 0.0472172,
  "ScanOptions": "FS",
  "ScanningSequence": "EP",
  "SequenceName": "epfid2d1_104",
  "SequenceVariant": "SK\\SS",
  "SeriesDescription": "func_task-flocdev_run-2",
  "SeriesNumber": 13,
  "ShimSetting": [648, -7225, -8779, 725, 79, -60, 110, -34],
  "SliceThickness": 2,
  "SliceTiming": [0, 0.7825, 0.0975, 0.88, 0.195, 0.98, 0.2925, 1.0775, 0.39, 1.175, 0.49, 1.2725, 0.5875, 1.37, 0.685, 0, 0.7825, 0.0975, 0.88, 0.195, 0.98, 0.2925, 1.0775, 0.39, 1.175, 0.49, 1.2725, 0.5875, 1.37, 0.685, 0, 0.7825, 0.0975, 0.88, 0.195, 0.98, 0.2925, 1.0775, 0.39, 1.175, 0.49, 1.2725, 0.5875, 1.37, 0.685, 0, 0.7825, 0.0975, 0.88, 0.195, 0.98, 0.2925, 1.0775, 0.39, 1.175, 0.49, 1.2725, 0.5875, 1.37, 0.685],
  "SoftwareVersions": "syngo MR E11",
  "SpacingBetweenSlices": 2,
  "StationName": "MRC35049",
  "TaskName": "flocdev",
  "TotalReadoutTime": 0.0576811,
  "TxRefAmp": 232.85,
  "WipMemBlock": "e5ad95e5-9e41-4022-8f33-84cb106e061a||Sequence: R016 ve11c/master r/e634e98; Dec 19 2017 11:00:25 by eja",
  "dcmmeta_affine": [
    [-1.9967930316925049, 0.001045572105795145, 0.11320961266756058, 106.03892517089844],
    [-0.02690877579152584, 1.9382212162017822, -0.49251827597618103, -73.8318862915039],
    [0.10997012257575989, 0.4932517111301422, 1.9350992441177368, -61.85594177246094],
    [0.0, 0.0, 0.0, 1.0]
],
  "dcmmeta_reorient_transform": [
    [0.0, -1.0, 0.0, 103.0],
    [1.0, 0.0, 0.0, 0.0],
    [0.0, 0.0, 1.0, 0.0],
    [0.0, 0.0, 0.0, 1.0]
],
  "dcmmeta_shape": [104, 104, 60, 161],
  "dcmmeta_slice_dim": 2,
  "dcmmeta_version": 0.6,
  "global": {
    "const": {
      "AcquisitionMatrix": [104, 0, 0, 104],
      "AngioFlag": "N",
      "BitsAllocated": 16,
      "BitsStored": 16,
      "BodyPartExamined": "BRAIN",
      "Columns": 832,
      "EchoNumbers": 1,
      "EchoTime": 37.0,
      "EchoTrainLength": 104,
      "FlipAngle": 52.0,
      "HighBit": 15,
      "ImageOrientationPatient": [0.99839652569361, 0.01345438766152, 0.05498506102189, 0.00052278604899, 0.96911062973116, -0.2466258584107],
      "ImagePositionPatient": [-833.35987577743, -841.11223945972, 128.4634863993],
      "ImageType": [
        "ORIGINAL",
        "PRIMARY",
        "M",
        "MB",
        "ND",
        "MOSAIC"
],
      "ImagedNucleus": "1H",
      "ImagingFrequency": 123.258919,
      "InPlanePhaseEncodingDirection": "COL",
      "MRAcquisitionType": "2D",
      "MagneticFieldStrength": 3.0,
      "Manufacturer": "SIEMENS",
      "ManufacturerModelName": "Prisma_fit",
      "Modality": "MR",
      "NumberOfAverages": 1.0,
      "NumberOfPhaseEncodingSteps": 104,
      "PercentPhaseFieldOfView": 100.0,
      "PercentSampling": 100.0,
      "PerformedProcedureStepStartTime": "140051.825000",
      "PhotometricInterpretation": "MONOCHROME2",
      "PixelBandwidth": 2290.0,
      "PixelRepresentation": 0,
      "PixelSpacing": [2.0, 2.0],
      "ProtocolName": "func_task-flocdev_run-2",
      "RepetitionTime": 1490.0,
      "Rows": 832,
      "SAR": 0.04721718705733,
      "SamplesPerPixel": 1,
      "ScanOptions": "FS",
      "ScanningSequence": "EP",
      "SequenceName": "epfid2d1_104",
      "SequenceVariant": [
        "SK",
        "SS"
],
      "SeriesDescription": "func_task-flocdev_run-2",
      "SeriesNumber": 13,
      "SeriesTime": "141037.945000",
      "SliceLocation": -35.664604945926,
      "SliceThickness": 2.0,
      "SmallestImagePixelValue": 0,
      "SoftwareVersions": "syngo MR E11",
      "SpacingBetweenSlices": 1.9999999859641,
      "SpecificCharacterSet": "ISO_IR 100",
      "StudyID": "1",
      "StudyTime": "140051.747000",
      "TransmitCoilName": "Body",
      "VariableFlipAngleFlag": "N",
      "WindowCenterWidthExplanation": "Algo1",
      "dBdt": 0.0},
    "slices": {}
  },
  "time": {
    "samples": {
      "AcquisitionNumber": [1, 2, 3, 4, 5, 6, 7, 8, 9, 10, 11, 12, 13, 14, 15, 16, 17, 18, 19, 20, 21, 22, 23, 24, 25, 26, 27, 28, 29, 30, 31, 32, 33, 34, 35, 36, 37, 38, 39, 40, 41, 42, 43, 44, 45, 46, 47, 48, 49, 50, 51, 52, 53, 54, 55, 56, 57, 58, 59, 60, 61, 62, 63, 64, 65, 66, 67, 68, 69, 70, 71, 72, 73, 74, 75, 76, 77, 78, 79, 80, 81, 82, 83, 84, 85, 86, 87, 88, 89, 90, 91, 92, 93, 94, 95, 96, 97, 98, 99, 100, 101, 102, 103, 104, 105, 106, 107, 108, 109, 110, 111, 112, 113, 114, 115, 116, 117, 118, 119, 120, 121, 122, 123, 124, 125, 126, 127, 128, 129, 130, 131, 132, 133, 134, 135, 136, 137, 138, 139, 140, 141, 142, 143, 144, 145, 146, 147, 148, 149, 150, 151, 152, 153, 154, 155, 156, 157, 158, 159, 160, 161],
      "AcquisitionTime": ["140922.030000", "140923.520000", "140925.010000", "140926.500000", "140927.990000", "140929.480000", "140930.970000", "140932.460000", "140933.950000", "140935.440000", "140936.930000", "140938.420000", "140939.910000", "140941.400000", "140942.890000", "140944.380000", "140945.870000", "140947.360000", "140948.850000", "140950.340000", "140951.830000", "140953.320000", "140954.810000", "140956.300000", "140957.790000", "140959.280000", "141000.770000", "141002.260000", "141003.750000", "141005.240000", "141006.730000", "141008.220000", "141009.710000", "141011.200000", "141012.690000", "141014.180000", "141015.670000", "141017.160000", "141018.650000", "141020.140000", "141021.630000", "141023.120000", "141024.610000", "141026.100000", "141027.590000", "141029.080000", "141030.570000", "141032.060000", "141033.550000", "141035.040000", "141036.530000", "141038.020000", "141039.510000", "141041.000000", "141042.490000", "141043.980000", "141045.470000", "141046.960000", "141048.450000", "141049.940000", "141051.430000", "141052.920000", "141054.410000", "141055.900000", "141057.390000", "141058.880000", "141100.370000", "141101.860000", "141103.350000", "141104.840000", "141106.330000", "141107.820000", "141109.310000", "141110.800000", "141112.290000", "141113.780000", "141115.270000", "141116.760000", "141118.250000", "141119.740000", "141121.230000", "141122.720000", "141124.210000", "141125.700000", "141127.190000", "141128.680000", "141130.170000", "141131.660000", "141133.150000", "141134.640000", "141136.130000", "141137.620000", "141139.110000", "141140.600000", "141142.090000", "141143.580000", "141145.070000", "141146.560000", "141148.050000", "141149.540000", "141151.030000", "141152.520000", "141154.010000", "141155.500000", "141156.990000", "141158.480000", "141159.970000", "141201.460000", "141202.950000", "141204.440000", "141205.930000", "141207.420000", "141208.910000", "141210.400000", "141211.890000", "141213.380000", "141214.870000", "141216.360000", "141217.850000", "141219.340000", "141220.830000", "141222.320000", "141223.810000", "141225.300000", "141226.790000", "141228.280000", "141229.770000", "141231.260000", "141232.750000", "141234.240000", "141235.730000", "141237.220000", "141238.710000", "141240.200000", "141241.690000", "141243.180000", "141244.670000", "141246.160000", "141247.650000", "141249.140000", "141250.630000", "141252.120000", "141253.610000", "141255.100000", "141256.590000", "141258.080000", "141259.570000", "141301.060000", "141302.550000", "141304.040000", "141305.530000", "141307.020000", "141308.510000", "141310.000000", "141311.490000", "141312.980000", "141314.470000", "141315.960000", "141317.450000", "141318.940000", "141320.430000"],
      "ContentTime": ["141037.948000", "141037.952000", "141037.955000", "141037.959000", "141037.962000", "141037.965000", "141037.968000", "141037.972000", "141037.975000", "141037.978000", "141037.981000", "141037.984000", "141037.988000", "141037.991000", "141037.994000", "141037.998000", "141038.002000", "141038.005000", "141038.008000", "141038.017000", "141038.020000", "141038.024000", "141057.911000", "141057.915000", "141057.918000", "141057.921000", "141057.924000", "141057.928000", "141057.931000", "141057.934000", "141057.937000", "141057.941000", "141057.944000", "141057.947000", "141057.950000", "141057.954000", "141057.957000", "141057.960000", "141057.963000", "141057.966000", "141057.970000", "141057.973000", "141117.911000", "141117.915000", "141117.918000", "141117.921000", "141117.924000", "141117.928000", "141117.931000", "141117.934000", "141117.937000", "141117.940000", "141117.944000", "141117.947000", "141117.950000", "141117.953000", "141117.957000", "141117.960000", "141117.963000", "141117.979000", "141117.983000", "141117.986000", "141117.989000", "141137.911000", "141137.915000", "141137.918000", "141137.922000", "141137.925000", "141137.928000", "141137.931000", "141137.934000", "141137.938000", "141137.941000", "141137.944000", "141137.947000", "141137.951000", "141137.954000", "141137.957000", "141137.960000", "141137.964000", "141137.967000", "141137.970000", "141137.973000", "141157.910000", "141157.914000", "141157.917000", "141157.920000", "141157.923000", "141157.927000", "141157.930000", "141157.933000", "141157.937000", "141157.940000", "141157.949000", "141157.952000", "141157.956000", "141157.959000", "141157.962000", "141157.965000", "141157.968000", "141157.972000", "141157.975000", "141157.978000", "141237.910000", "141237.914000", "141237.917000", "141237.920000", "141237.924000", "141237.927000", "141237.930000", "141237.933000", "141237.937000", "141237.940000", "141237.943000", "141237.946000", "141237.950000", "141237.953000", "141237.956000", "141237.959000", "141237.963000", "141237.966000", "141237.969000", "141237.972000", "141237.976000", "141237.979000", "141237.982000", "141237.985000", "141237.989000", "141238.002000", "141238.005000", "141238.009000", "141317.911000", "141317.915000", "141317.918000", "141317.921000", "141317.925000", "141317.928000", "141317.931000", "141317.934000", "141317.938000", "141317.941000", "141317.944000", "141317.947000", "141317.951000", "141317.954000", "141317.957000", "141317.960000", "141317.964000", "141317.967000", "141317.970000", "141317.974000", "141317.977000", "141317.980000", "141317.983000", "141317.987000", "141317.990000", "141317.993000", "141317.997000", "141322.368000", "141322.371000", "141322.375000"],
      "InstanceCreationTime": ["141037.948000", "141037.952000", "141037.955000", "141037.959000", "141037.962000", "141037.965000", "141037.968000", "141037.972000", "141037.975000", "141037.978000", "141037.981000", "141037.984000", "141037.988000", "141037.991000", "141037.994000", "141037.998000", "141038.002000", "141038.005000", "141038.008000", "141038.017000", "141038.020000", "141038.024000", "141057.911000", "141057.915000", "141057.918000", "141057.921000", "141057.924000", "141057.928000", "141057.931000", "141057.934000", "141057.937000", "141057.941000", "141057.944000", "141057.947000", "141057.950000", "141057.954000", "141057.957000", "141057.960000", "141057.963000", "141057.966000", "141057.970000", "141057.973000", "141117.911000", "141117.915000", "141117.918000", "141117.921000", "141117.924000", "141117.928000", "141117.931000", "141117.934000", "141117.937000", "141117.940000", "141117.944000", "141117.947000", "141117.950000", "141117.953000", "141117.957000", "141117.960000", "141117.963000", "141117.979000", "141117.983000", "141117.986000", "141117.989000", "141137.911000", "141137.915000", "141137.918000", "141137.922000", "141137.925000", "141137.928000", "141137.931000", "141137.934000", "141137.938000", "141137.941000", "141137.944000", "141137.947000", "141137.951000", "141137.954000", "141137.957000", "141137.960000", "141137.964000", "141137.967000", "141137.970000", "141137.973000", "141157.910000", "141157.914000", "141157.917000", "141157.920000", "141157.923000", "141157.927000", "141157.930000", "141157.933000", "141157.937000", "141157.940000", "141157.949000", "141157.952000", "141157.956000", "141157.959000", "141157.962000", "141157.965000", "141157.968000", "141157.972000", "141157.975000", "141157.978000", "141237.910000", "141237.914000", "141237.917000", "141237.920000", "141237.924000", "141237.927000", "141237.930000", "141237.933000", "141237.937000", "141237.940000", "141237.943000", "141237.946000", "141237.950000", "141237.953000", "141237.956000", "141237.959000", "141237.963000", "141237.966000", "141237.969000", "141237.972000", "141237.976000", "141237.979000", "141237.982000", "141237.985000", "141237.989000", "141238.002000", "141238.005000", "141238.009000", "141317.911000", "141317.915000", "141317.918000", "141317.921000", "141317.925000", "141317.928000", "141317.931000", "141317.934000", "141317.938000", "141317.941000", "141317.944000", "141317.947000", "141317.951000", "141317.954000", "141317.957000", "141317.960000", "141317.964000", "141317.967000", "141317.970000", "141317.974000", "141317.977000", "141317.980000", "141317.983000", "141317.987000", "141317.990000", "141317.993000", "141317.997000", "141322.368000", "141322.371000", "141322.375000"],
      "InstanceNumber": [1, 2, 3, 4, 5, 6, 7, 8, 9, 10, 11, 12, 13, 14, 15, 16, 17, 18, 19, 20, 21, 22, 23, 24, 25, 26, 27, 28, 29, 30, 31, 32, 33, 34, 35, 36, 37, 38, 39, 40, 41, 42, 43, 44, 45, 46, 47, 48, 49, 50, 51, 52, 53, 54, 55, 56, 57, 58, 59, 60, 61, 62, 63, 64, 65, 66, 67, 68, 69, 70, 71, 72, 73, 74, 75, 76, 77, 78, 79, 80, 81, 82, 83, 84, 85, 86, 87, 88, 89, 90, 91, 92, 93, 94, 95, 96, 97, 98, 99, 100, 101, 102, 103, 104, 105, 106, 107, 108, 109, 110, 111, 112, 113, 114, 115, 116, 117, 118, 119, 120, 121, 122, 123, 124, 125, 126, 127, 128, 129, 130, 131, 132, 133, 134, 135, 136, 137, 138, 139, 140, 141, 142, 143, 144, 145, 146, 147, 148, 149, 150, 151, 152, 153, 154, 155, 156, 157, 158, 159, 160, 161],
      "LargestImagePixelValue": [41129, 39888, 39252, 38654, 38797, 38221, 38557, 38318, 38254, 38308, 38430, 38178, 38151, 37966, 38186, 37921, 37718, 38244, 38069, 38052, 38661, 38337, 38347, 38214, 37966, 38504, 38010, 38110, 38225, 38134, 38165, 38379, 38417, 38103, 37901, 37893, 37827, 38471, 38142, 38300, 37751, 38178, 38586, 38205, 37675, 37842, 38307, 37906, 37969, 38008, 37942, 37913, 38248, 38200, 38320, 38364, 38341, 38040, 37885, 38300, 37686, 38059, 38012, 38066, 38582, 38229, 37889, 38795, 37853, 37779, 38346, 37737, 37808, 37936, 37976, 37650, 38012, 37875, 37530, 38077, 37866, 37979, 38010, 37461, 37714, 37868, 38133, 37873, 37670, 38048, 38265, 38100, 38285, 38017, 37939, 37811, 38284, 37888, 37734, 37987, 37764, 38447, 37863, 37885, 38031, 38064, 38084, 37521, 37871, 37669, 38116, 37875, 37795, 37693, 37903, 37956, 37643, 37919, 38145, 38104, 38178, 37979, 37853, 37628, 38088, 37598, 37985, 38144, 38008, 37928, 38167, 37793, 38252, 37994, 38009, 38192, 37884, 37983, 37746, 38038, 37816, 37668, 37842, 38142, 37843, 38097, 37632, 37789, 37788, 37932, 38279, 37842, 37815, 38107, 37926, 37810, 38024, 38499, 38168, 38131, 38179],
      "WindowCenter": [10171.0, 10138.0, 10114.0, 10105.0, 10111.0, 10099.0, 10104.0, 10098.0, 10104.0, 10103.0, 10112.0, 10113.0, 10115.0, 10113.0, 10124.0, 10134.0, 10135.0, 10124.0, 10115.0, 10106.0, 10118.0, 10108.0, 10114.0, 10105.0, 10097.0, 10096.0, 10104.0, 10107.0, 10106.0, 10095.0, 10087.0, 10101.0, 10104.0, 10106.0, 10100.0, 10101.0, 10104.0, 10111.0, 10114.0, 10121.0, 10101.0, 10098.0, 10101.0, 10108.0, 10116.0, 10125.0, 10123.0, 10111.0, 10124.0, 10125.0, 10115.0, 10099.0, 10096.0, 10087.0, 10102.0, 10110.0, 10110.0, 10090.0, 10088.0, 10093.0, 10099.0, 10103.0, 10097.0, 10095.0, 10108.0, 10099.0, 10100.0, 10104.0, 10109.0, 10109.0, 10113.0, 10101.0, 10109.0, 10113.0, 10114.0, 10116.0, 10115.0, 10099.0, 10085.0, 10085.0, 10096.0, 10105.0, 10106.0, 10094.0, 10106.0, 10107.0, 10115.0, 10109.0, 10101.0, 10091.0, 10096.0, 10103.0, 10111.0, 10098.0, 10098.0, 10091.0, 10101.0, 10105.0, 10124.0, 10120.0, 10096.0, 10087.0, 10065.0, 10070.0, 10079.0, 10098.0, 10107.0, 10104.0, 10103.0, 10094.0, 10090.0, 10085.0, 10098.0, 10102.0, 10100.0, 10106.0, 10093.0, 10090.0, 10088.0, 10096.0, 10096.0, 10104.0, 10107.0, 10100.0, 10089.0, 10074.0, 10074.0, 10080.0, 10088.0, 10090.0, 10091.0, 10083.0, 10087.0, 10087.0, 10088.0, 10096.0, 10091.0, 10093.0, 10091.0, 10106.0, 10108.0, 10104.0, 10094.0, 10090.0, 10082.0, 10097.0, 10091.0, 10090.0, 10080.0, 10086.0, 10093.0, 10105.0, 10108.0, 10099.0, 10088.0, 10065.0, 10070.0, 10084.0, 10097.0, 10099.0, 10104.0],
      "WindowWidth": [21643.0, 21545.0, 21480.0, 21455.0, 21463.0, 21440.0, 21446.0, 21433.0, 21445.0, 21443.0, 21464.0, 21467.0, 21473.0, 21468.0, 21496.0, 21521.0, 21522.0, 21494.0, 21471.0, 21450.0, 21472.0, 21457.0, 21469.0, 21446.0, 21427.0, 21422.0, 21442.0, 21454.0, 21448.0, 21422.0, 21405.0, 21435.0, 21443.0, 21449.0, 21437.0, 21442.0, 21442.0, 21457.0, 21468.0, 21482.0, 21441.0, 21432.0, 21436.0, 21456.0, 21475.0, 21495.0, 21489.0, 21465.0, 21491.0, 21495.0, 21469.0, 21433.0, 21423.0, 21403.0, 21434.0, 21453.0, 21451.0, 21410.0, 21405.0, 21417.0, 21435.0, 21441.0, 21428.0, 21421.0, 21450.0, 21436.0, 21436.0, 21444.0, 21461.0, 21461.0, 21463.0, 21439.0, 21457.0, 21462.0, 21467.0, 21472.0, 21468.0, 21432.0, 21404.0, 21400.0, 21425.0, 21447.0, 21447.0, 21424.0, 21448.0, 21455.0, 21470.0, 21460.0, 21440.0, 21415.0, 21424.0, 21438.0, 21455.0, 21430.0, 21431.0, 21418.0, 21432.0, 21447.0, 21489.0, 21482.0, 21426.0, 21398.0, 21351.0, 21364.0, 21386.0, 21430.0, 21452.0, 21449.0, 21443.0, 21425.0, 21411.0, 21403.0, 21431.0, 21442.0, 21437.0, 21446.0, 21417.0, 21411.0, 21404.0, 21423.0, 21422.0, 21439.0, 21448.0, 21435.0, 21407.0, 21375.0, 21376.0, 21390.0, 21406.0, 21412.0, 21415.0, 21396.0, 21402.0, 21404.0, 21405.0, 21426.0, 21417.0, 21421.0, 21417.0, 21447.0, 21453.0, 21447.0, 21422.0, 21412.0, 21394.0, 21426.0, 21414.0, 21410.0, 21386.0, 21399.0, 21416.0, 21445.0, 21451.0, 21428.0, 21402.0, 21352.0, 21361.0, 21393.0, 21426.0, 21431.0, 21441.0]
    },
    "slices": {}
  }
}