{
  "AcquisitionMatrixPE": 104,
  "AcquisitionNumber": 1,
  "AcquisitionTime": "14:04:0.532500",
  "BandwidthPerPixelPhaseEncode": 17.17,
  "BaseResolution": 104,
  "BodyPartExamined": "BRAIN",
  "CoilCombinationMethod": "Sum of Squares",
  "ConsistencyInfo": "N4_VE11C_LATEST_20160120",
  "ConversionSoftware": "dcm2niix",
  "ConversionSoftwareVersion": "v1.0.20211006",
  "DerivedVendorReportedEchoSpacing": 0.000560011,
  "DeviceSerialNumber": "167006",
  "DwellTime": 2.1e-06,
  "EchoTime": 0.037,
  "EchoTime1": 0.037,
  "EchoTime2": 0.001,
  "EchoTrainLength": 104,
  "EffectiveEchoSpacing": 0.000560011,
  "FlipAngle": 52,
  "HeudiconvVersion": "0.10.0",
  "ImageComments": "Unaliased MB4/PE3/LB",
  "ImageOrientationPatientDICOM": [0.998397, 0.0134544, 0.0549851, 0.000522786, 0.969111, -0.246626],
  "ImageOrientationText": "Tra>Cor(-14.3)>Sag(3.2)",
  "ImageType": [
    "ORIGINAL",
    "PRIMARY",
    "P",
    "MB",
    "ND",
    "MOSAIC",
    "PHASE"
],
  "ImagingFrequency": 123.259,
  "InPlanePhaseEncodingDirectionDICOM": "COL",
  "InstitutionAddress": "Chemin Queen-Mary 4565,Montreal,District,CA,H3W 1W5",
  "InstitutionName": "IUGM",
  "InstitutionalDepartmentName": "Department",
  "MRAcquisitionType": "2D",
  "MagneticFieldStrength": 3,
  "Manufacturer": "Siemens",
  "ManufacturersModelName": "Prisma_fit",
  "MatrixCoilMode": "SENSE",
  "Modality": "MR",
  "MultibandAccelerationFactor": 4,
  "PartialFourier": 1,
  "PatientPosition": "HFS",
  "PercentPhaseFOV": 100,
  "PercentSampling": 100,
  "PhaseEncodingDirection": "j",
  "PhaseEncodingSteps": 104,
  "PhaseResolution": 1,
  "PixelBandwidth": 2290,
  "ProcedureStepDescription": "localizers^floc",
  "ProtocolName": "func_task-flocdev_run-1",
  "PulseSequenceDetails": "%CustomerSeq%\\cmrr_mbep2d_bold",
  "ReceiveCoilActiveElements": "HC1-7;NC1,2",
  "ReceiveCoilName": "HeadNeck_64",
  "ReconMatrixPE": 104,
  "RepetitionTime": 1.49,
  "SAR": 0.0472172,
  "ScanOptions": "FS",
  "ScanningSequence": "EP",
  "SequenceName": "epfid2d1_104",
  "SequenceVariant": "SK\\SS",
  "SeriesDescription": "func_task-flocdev_run-1",
  "SeriesNumber": 11,
  "ShimSetting": [648, -7225, -8779, 725, 79, -60, 110, -34],
  "SliceThickness": 2,
  "SliceTiming": [0, 0.785, 0.0975, 0.8825, 0.1975, 0.98, 0.295, 1.0775, 0.3925, 1.1775, 0.49, 1.275, 0.5875, 1.3725, 0.6875, 0, 0.785, 0.0975, 0.8825, 0.1975, 0.98, 0.295, 1.0775, 0.3925, 1.1775, 0.49, 1.275, 0.5875, 1.3725, 0.6875, 0, 0.785, 0.0975, 0.8825, 0.1975, 0.98, 0.295, 1.0775, 0.3925, 1.1775, 0.49, 1.275, 0.5875, 1.3725, 0.6875, 0, 0.785, 0.0975, 0.8825, 0.1975, 0.98, 0.295, 1.0775, 0.3925, 1.1775, 0.49, 1.275, 0.5875, 1.3725, 0.6875],
  "SoftwareVersions": "syngo MR E11",
  "SpacingBetweenSlices": 2,
  "StationName": "MRC35049",
  "TaskName": "flocdev",
  "TotalReadoutTime": 0.0576811,
  "TxRefAmp": 232.85,
  "WipMemBlock": "f7ff6410-a7ea-4199-a495-0ae54ce3cf72||Sequence: R016 ve11c/master r/e634e98; Dec 19 2017 11:00:25 by eja",
  "dcmmeta_affine": [
    [-1.9967930316925049, 0.001045572105795145, 0.11320961266756058, 106.03892517089844],
    [-0.02690877579152584, 1.9382212162017822, -0.49251827597618103, -73.8318862915039],
    [0.10997012257575989, 0.4932517111301422, 1.9350992441177368, -61.85594177246094],
    [0.0, 0.0, 0.0, 1.0]
],
  "dcmmeta_reorient_transform": [
    [0.0, -1.0, 0.0, 103.0],
    [1.0, 0.0, 0.0, 0.0],
    [0.0, 0.0, 1.0, 0.0],
    [0.0, 0.0, 0.0, 1.0]
],
  "dcmmeta_shape": [104, 104, 60, 161],
  "dcmmeta_slice_dim": 2,
  "dcmmeta_version": 0.6,
  "global": {
    "const": {
      "AcquisitionMatrix": [104, 0, 0, 104],
      "AngioFlag": "N",
      "BitsAllocated": 16,
      "BitsStored": 16,
      "BodyPartExamined": "BRAIN",
      "Columns": 832,
      "EchoNumbers": 1,
      "EchoTime": 37.0,
      "EchoTrainLength": 104,
      "FlipAngle": 52.0,
      "HighBit": 15,
      "ImageOrientationPatient": [0.99839652569361, 0.01345438766152, 0.05498506102189, 0.00052278604899, 0.96911062973116, -0.2466258584107],
      "ImagePositionPatient": [-833.35987577743, -841.11223945972, 128.4634863993],
      "ImageType": [
        "ORIGINAL",
        "PRIMARY",
        "P",
        "MB",
        "ND",
        "MOSAIC"
],
      "ImagedNucleus": "1H",
      "ImagingFrequency": 123.258915,
      "InPlanePhaseEncodingDirection": "COL",
      "LargestImagePixelValue": 4095,
      "MRAcquisitionType": "2D",
      "MagneticFieldStrength": 3.0,
      "Manufacturer": "SIEMENS",
      "ManufacturerModelName": "Prisma_fit",
      "Modality": "MR",
      "NumberOfAverages": 1.0,
      "NumberOfPhaseEncodingSteps": 104,
      "PercentPhaseFieldOfView": 100.0,
      "PercentSampling": 100.0,
      "PerformedProcedureStepStartTime": "140051.825000",
      "PhotometricInterpretation": "MONOCHROME2",
      "PixelBandwidth": 2290.0,
      "PixelRepresentation": 0,
      "PixelSpacing": [2.0, 2.0],
      "ProtocolName": "func_task-flocdev_run-1",
      "RepetitionTime": 1490.0,
      "RescaleIntercept": -4096.0,
      "RescaleSlope": 2.0,
      "RescaleType": "US",
      "Rows": 832,
      "SAR": 0.04721718705733,
      "SamplesPerPixel": 1,
      "ScanOptions": "FS",
      "ScanningSequence": "EP",
      "SequenceName": "epfid2d1_104",
      "SequenceVariant": [
        "SK",
        "SS"
],
      "SeriesDescription": "func_task-flocdev_run-1",
      "SeriesNumber": 11,
      "SeriesTime": "140519.064000",
      "SliceLocation": -35.664604945926,
      "SliceThickness": 2.0,
      "SmallestImagePixelValue": 0,
      "SoftwareVersions": "syngo MR E11",
      "SpacingBetweenSlices": 1.9999999859641,
      "SpecificCharacterSet": "ISO_IR 100",
      "StudyID": "1",
      "StudyTime": "140051.747000",
      "TransmitCoilName": "Body",
      "VariableFlipAngleFlag": "N",
      "WindowCenterWidthExplanation": "Algo1",
      "dBdt": 0.0},
    "slices": {}
  },
  "time": {
    "samples": {
      "AcquisitionNumber": [1, 2, 3, 4, 5, 6, 7, 8, 9, 10, 11, 12, 13, 14, 15, 16, 17, 18, 19, 20, 21, 22, 23, 24, 25, 26, 27, 28, 29, 30, 31, 32, 33, 34, 35, 36, 37, 38, 39, 40, 41, 42, 43, 44, 45, 46, 47, 48, 49, 50, 51, 52, 53, 54, 55, 56, 57, 58, 59, 60, 61, 62, 63, 64, 65, 66, 67, 68, 69, 70, 71, 72, 73, 74, 75, 76, 77, 78, 79, 80, 81, 82, 83, 84, 85, 86, 87, 88, 89, 90, 91, 92, 93, 94, 95, 96, 97, 98, 99, 100, 101, 102, 103, 104, 105, 106, 107, 108, 109, 110, 111, 112, 113, 114, 115, 116, 117, 118, 119, 120, 121, 122, 123, 124, 125, 126, 127, 128, 129, 130, 131, 132, 133, 134, 135, 136, 137, 138, 139, 140, 141, 142, 143, 144, 145, 146, 147, 148, 149, 150, 151, 152, 153, 154, 155, 156, 157, 158, 159, 160, 161],
      "AcquisitionTime": ["140400.532500", "140402.022500", "140403.512500", "140405.002500", "140406.492500", "140407.982500", "140409.472500", "140410.962500", "140412.452500", "140413.942500", "140415.432500", "140416.922500", "140418.412500", "140419.902500", "140421.392500", "140422.882500", "140424.372500", "140425.862500", "140427.352500", "140428.842500", "140430.332500", "140431.822500", "140433.312500", "140434.802500", "140436.292500", "140437.782500", "140439.272500", "140440.762500", "140442.252500", "140443.742500", "140445.232500", "140446.722500", "140448.212500", "140449.702500", "140451.192500", "140452.682500", "140454.172500", "140455.662500", "140457.152500", "140458.642500", "140500.132500", "140501.622500", "140503.112500", "140504.602500", "140506.092500", "140507.582500", "140509.072500", "140510.562500", "140512.052500", "140513.542500", "140515.032500", "140516.522500", "140518.012500", "140519.502500", "140520.992500", "140522.482500", "140523.972500", "140525.462500", "140526.952500", "140528.442500", "140529.932500", "140531.422500", "140532.912500", "140534.402500", "140535.892500", "140537.382500", "140538.872500", "140540.362500", "140541.852500", "140543.342500", "140544.832500", "140546.322500", "140547.812500", "140549.302500", "140550.792500", "140552.282500", "140553.772500", "140555.262500", "140556.752500", "140558.242500", "140559.732500", "140601.222500", "140602.712500", "140604.202500", "140605.692500", "140607.182500", "140608.672500", "140610.162500", "140611.652500", "140613.142500", "140614.632500", "140616.122500", "140617.612500", "140619.102500", "140620.592500", "140622.082500", "140623.572500", "140625.062500", "140626.552500", "140628.042500", "140629.532500", "140631.022500", "140632.512500", "140634.002500", "140635.492500", "140636.982500", "140638.472500", "140639.962500", "140641.452500", "140642.942500", "140644.432500", "140645.922500", "140647.412500", "140648.902500", "140650.392500", "140651.882500", "140653.372500", "140654.862500", "140656.352500", "140657.842500", "140659.332500", "140700.822500", "140702.312500", "140703.802500", "140705.292500", "140706.782500", "140708.272500", "140709.762500", "140711.252500", "140712.742500", "140714.232500", "140715.722500", "140717.212500", "140718.702500", "140720.192500", "140721.682500", "140723.172500", "140724.662500", "140726.152500", "140727.642500", "140729.132500", "140730.622500", "140732.112500", "140733.602500", "140735.092500", "140736.582500", "140738.072500", "140739.562500", "140741.052500", "140742.542500", "140744.032500", "140745.522500", "140747.012500", "140748.502500", "140749.992500", "140751.482500", "140752.972500", "140754.462500", "140755.952500", "140757.442500", "140758.932500"],
      "ContentTime": ["140519.066000", "140519.069000", "140519.072000", "140519.074000", "140519.076000", "140519.079000", "140519.081000", "140519.084000", "140519.086000", "140519.089000", "140519.091000", "140519.094000", "140519.096000", "140519.099000", "140519.101000", "140519.103000", "140519.106000", "140519.108000", "140519.111000", "140519.113000", "140519.116000", "140519.118000", "140519.121000", "140519.123000", "140538.978000", "140538.980000", "140538.983000", "140538.985000", "140538.988000", "140538.990000", "140538.993000", "140538.995000", "140538.998000", "140539.001000", "140539.004000", "140539.006000", "140539.009000", "140539.011000", "140539.014000", "140539.016000", "140539.018000", "140539.021000", "140539.023000", "140539.026000", "140558.995000", "140558.997000", "140559.001000", "140559.003000", "140559.006000", "140559.008000", "140559.010000", "140559.013000", "140559.016000", "140559.018000", "140559.020000", "140559.030000", "140559.032000", "140559.035000", "140559.037000", "140559.040000", "140559.042000", "140559.045000", "140559.047000", "140559.050000", "140618.977000", "140618.979000", "140618.982000", "140618.984000", "140618.987000", "140618.989000", "140618.992000", "140618.994000", "140618.997000", "140619.000000", "140619.003000", "140619.005000", "140619.008000", "140619.010000", "140619.013000", "140619.015000", "140619.018000", "140619.020000", "140619.022000", "140619.025000", "140619.027000", "140638.991000", "140638.994000", "140638.996000", "140638.999000", "140639.001000", "140639.004000", "140639.006000", "140639.009000", "140639.011000", "140639.014000", "140639.016000", "140639.019000", "140639.022000", "140639.024000", "140639.027000", "140639.029000", "140639.032000", "140639.034000", "140639.037000", "140639.039000", "140719.001000", "140719.004000", "140719.006000", "140719.009000", "140719.011000", "140719.014000", "140719.016000", "140719.019000", "140719.021000", "140719.024000", "140719.026000", "140719.029000", "140719.031000", "140719.033000", "140719.036000", "140719.038000", "140719.041000", "140719.043000", "140719.046000", "140719.048000", "140719.051000", "140719.053000", "140719.056000", "140719.058000", "140719.061000", "140719.063000", "140719.066000", "140759.013000", "140759.016000", "140759.019000", "140759.021000", "140759.024000", "140759.026000", "140759.029000", "140759.031000", "140759.033000", "140759.036000", "140759.039000", "140759.041000", "140759.044000", "140759.046000", "140759.049000", "140759.051000", "140759.053000", "140759.056000", "140759.058000", "140759.061000", "140759.063000", "140759.066000", "140759.068000", "140759.071000", "140759.073000", "140759.076000", "140759.078000", "140801.695000", "140801.698000"],
      "InstanceCreationTime": ["140519.066000", "140519.069000", "140519.072000", "140519.074000", "140519.076000", "140519.079000", "140519.081000", "140519.084000", "140519.086000", "140519.089000", "140519.091000", "140519.094000", "140519.096000", "140519.099000", "140519.101000", "140519.103000", "140519.106000", "140519.108000", "140519.111000", "140519.113000", "140519.116000", "140519.118000", "140519.121000", "140519.123000", "140538.978000", "140538.980000", "140538.983000", "140538.985000", "140538.988000", "140538.990000", "140538.993000", "140538.995000", "140538.998000", "140539.001000", "140539.004000", "140539.006000", "140539.009000", "140539.011000", "140539.014000", "140539.016000", "140539.018000", "140539.021000", "140539.023000", "140539.026000", "140558.995000", "140558.997000", "140559.001000", "140559.003000", "140559.006000", "140559.008000", "140559.010000", "140559.013000", "140559.016000", "140559.018000", "140559.020000", "140559.030000", "140559.032000", "140559.035000", "140559.037000", "140559.040000", "140559.042000", "140559.045000", "140559.047000", "140559.050000", "140618.977000", "140618.979000", "140618.982000", "140618.984000", "140618.987000", "140618.989000", "140618.992000", "140618.994000", "140618.997000", "140619.000000", "140619.003000", "140619.005000", "140619.008000", "140619.010000", "140619.013000", "140619.015000", "140619.018000", "140619.020000", "140619.022000", "140619.025000", "140619.027000", "140638.991000", "140638.994000", "140638.996000", "140638.999000", "140639.001000", "140639.004000", "140639.006000", "140639.009000", "140639.011000", "140639.014000", "140639.016000", "140639.019000", "140639.022000", "140639.024000", "140639.027000", "140639.029000", "140639.032000", "140639.034000", "140639.037000", "140639.039000", "140719.001000", "140719.004000", "140719.006000", "140719.009000", "140719.011000", "140719.014000", "140719.016000", "140719.019000", "140719.021000", "140719.024000", "140719.026000", "140719.029000", "140719.031000", "140719.033000", "140719.036000", "140719.038000", "140719.041000", "140719.043000", "140719.046000", "140719.048000", "140719.051000", "140719.053000", "140719.056000", "140719.058000", "140719.061000", "140719.063000", "140719.066000", "140759.013000", "140759.016000", "140759.019000", "140759.021000", "140759.024000", "140759.026000", "140759.029000", "140759.031000", "140759.033000", "140759.036000", "140759.039000", "140759.041000", "140759.044000", "140759.046000", "140759.049000", "140759.051000", "140759.053000", "140759.056000", "140759.058000", "140759.061000", "140759.063000", "140759.066000", "140759.068000", "140759.071000", "140759.073000", "140759.076000", "140759.078000", "140801.695000", "140801.698000"],
      "InstanceNumber": [1, 2, 3, 4, 5, 6, 7, 8, 9, 10, 11, 12, 13, 14, 15, 16, 17, 18, 19, 20, 21, 22, 23, 24, 25, 26, 27, 28, 29, 30, 31, 32, 33, 34, 35, 36, 37, 38, 39, 40, 41, 42, 43, 44, 45, 46, 47, 48, 49, 50, 51, 52, 53, 54, 55, 56, 57, 58, 59, 60, 61, 62, 63, 64, 65, 66, 67, 68, 69, 70, 71, 72, 73, 74, 75, 76, 77, 78, 79, 80, 81, 82, 83, 84, 85, 86, 87, 88, 89, 90, 91, 92, 93, 94, 95, 96, 97, 98, 99, 100, 101, 102, 103, 104, 105, 106, 107, 108, 109, 110, 111, 112, 113, 114, 115, 116, 117, 118, 119, 120, 121, 122, 123, 124, 125, 126, 127, 128, 129, 130, 131, 132, 133, 134, 135, 136, 137, 138, 139, 140, 141, 142, 143, 144, 145, 146, 147, 148, 149, 150, 151, 152, 153, 154, 155, 156, 157, 158, 159, 160, 161],
      "WindowCenter": [4866.0, 4836.0, 4838.0, 4862.0, 4864.0, 4860.0, 4862.0, 4834.0, 4862.0, 4860.0, 4840.0, 4838.0, 4864.0, 4860.0, 4866.0, 4862.0, 4862.0, 4862.0, 4860.0, 4838.0, 4860.0, 4862.0, 4856.0, 4836.0, 4860.0, 4840.0, 4864.0, 4862.0, 4862.0, 4860.0, 4860.0, 4836.0, 4860.0, 4838.0, 4838.0, 4862.0, 4838.0, 4862.0, 4838.0, 4860.0, 4862.0, 4860.0, 4836.0, 4860.0, 4862.0, 4842.0, 4858.0, 4860.0, 4858.0, 4860.0, 4836.0, 4836.0, 4862.0, 4836.0, 4862.0, 4838.0, 4860.0, 4834.0, 4864.0, 4838.0, 4860.0, 4836.0, 4838.0, 4838.0, 4860.0, 4860.0, 4858.0, 4836.0, 4836.0, 4840.0, 4832.0, 4860.0, 4836.0, 4860.0, 4836.0, 4862.0, 4838.0, 4862.0, 4834.0, 4860.0, 4834.0, 4834.0, 4836.0, 4858.0, 4834.0, 4836.0, 4836.0, 4858.0, 4862.0, 4838.0, 4836.0, 4836.0, 4836.0, 4856.0, 4834.0, 4836.0, 4834.0, 4836.0, 4836.0, 4862.0, 4834.0, 4864.0, 4832.0, 4858.0, 4858.0, 4836.0, 4834.0, 4836.0, 4834.0, 4834.0, 4838.0, 4838.0, 4834.0, 4858.0, 4836.0, 4838.0, 4834.0, 4836.0, 4832.0, 4834.0, 4834.0, 4860.0, 4836.0, 4838.0, 4838.0, 4838.0, 4836.0, 4838.0, 4836.0, 4834.0, 4836.0, 4856.0, 4838.0, 4838.0, 4858.0, 4834.0, 4834.0, 4834.0, 4836.0, 4834.0, 4840.0, 4834.0, 4836.0, 4836.0, 4836.0, 4836.0, 4862.0, 4832.0, 4838.0, 4834.0, 4836.0, 4836.0, 4834.0, 4836.0, 4836.0, 4836.0, 4832.0, 4862.0, 4834.0, 4836.0, 4834.0],
      "WindowWidth": [18692.0, 18652.0, 18658.0, 18684.0, 18690.0, 18688.0, 18688.0, 18654.0, 18686.0, 18686.0, 18658.0, 18654.0, 18686.0, 18690.0, 18688.0, 18686.0, 18686.0, 18686.0, 18690.0, 18660.0, 18686.0, 18688.0, 18688.0, 18658.0, 18684.0, 18656.0, 18688.0, 18688.0, 18692.0, 18684.0, 18686.0, 18658.0, 18690.0, 18648.0, 18656.0, 18686.0, 18660.0, 18686.0, 18656.0, 18688.0, 18694.0, 18688.0, 18658.0, 18688.0, 18692.0, 18660.0, 18690.0, 18690.0, 18690.0, 18688.0, 18662.0, 18662.0, 18690.0, 18654.0, 18690.0, 18662.0, 18686.0, 18660.0, 18686.0, 18656.0, 18688.0, 18658.0, 18658.0, 18654.0, 18686.0, 18690.0, 18688.0, 18660.0, 18654.0, 18658.0, 18652.0, 18688.0, 18658.0, 18690.0, 18660.0, 18692.0, 18658.0, 18692.0, 18660.0, 18688.0, 18660.0, 18654.0, 18660.0, 18682.0, 18656.0, 18656.0, 18658.0, 18684.0, 18686.0, 18656.0, 18656.0, 18654.0, 18656.0, 18690.0, 18654.0, 18658.0, 18654.0, 18658.0, 18654.0, 18684.0, 18656.0, 18692.0, 18654.0, 18686.0, 18688.0, 18654.0, 18658.0, 18658.0, 18660.0, 18650.0, 18658.0, 18658.0, 18656.0, 18686.0, 18656.0, 18656.0, 18654.0, 18656.0, 18658.0, 18658.0, 18656.0, 18690.0, 18658.0, 18658.0, 18662.0, 18658.0, 18660.0, 18658.0, 18656.0, 18656.0, 18656.0, 18690.0, 18660.0, 18656.0, 18688.0, 18656.0, 18654.0, 18656.0, 18656.0, 18660.0, 18656.0, 18658.0, 18660.0, 18660.0, 18656.0, 18660.0, 18688.0, 18654.0, 18656.0, 18660.0, 18660.0, 18656.0, 18656.0, 18660.0, 18654.0, 18658.0, 18652.0, 18686.0, 18656.0, 18652.0, 18656.0]
    },
    "slices": {}
  }
}