{
  "AcquisitionMatrixPE": 104,
  "AcquisitionNumber": 1,
  "AcquisitionTime": "14:14:41.837500",
  "BandwidthPerPixelPhaseEncode": 17.17,
  "BaseResolution": 104,
  "BodyPartExamined": "BRAIN",
  "CoilCombinationMethod": "Sum of Squares",
  "ConsistencyInfo": "N4_VE11C_LATEST_20160120",
  "ConversionSoftware": "dcm2niix",
  "ConversionSoftwareVersion": "v1.0.20211006",
  "DerivedVendorReportedEchoSpacing": 0.000560011,
  "DeviceSerialNumber": "167006",
  "DwellTime": 2.1e-06,
  "EchoTime": 0.037,
  "EchoTrainLength": 104,
  "EffectiveEchoSpacing": 0.000560011,
  "FlipAngle": 52,
  "HeudiconvVersion": "0.10.0",
  "ImageComments": "Unaliased MB4/PE3/LB",
  "ImageOrientationPatientDICOM": [0.998846, -0.00532313, 0.0477285, 0.017435, 0.966225, -0.25711],
  "ImageOrientationText": "Tra>Cor(-14.9)>Sag(2.6)",
  "ImageType": [
    "ORIGINAL",
    "PRIMARY",
    "M",
    "MB",
    "ND",
    "MOSAIC"
],
  "ImagingFrequency": 123.259,
  "InPlanePhaseEncodingDirectionDICOM": "COL",
  "InstitutionAddress": "Chemin Queen-Mary 4565,Montreal,District,CA,H3W 1W5",
  "InstitutionName": "IUGM",
  "InstitutionalDepartmentName": "Department",
  "MRAcquisitionType": "2D",
  "MagneticFieldStrength": 3,
  "Manufacturer": "Siemens",
  "ManufacturersModelName": "Prisma_fit",
  "MatrixCoilMode": "SENSE",
  "Modality": "MR",
  "MultibandAccelerationFactor": 4,
  "PartialFourier": 1,
  "PatientPosition": "HFS",
  "PercentPhaseFOV": 100,
  "PercentSampling": 100,
  "PhaseEncodingDirection": "j",
  "PhaseEncodingSteps": 104,
  "PhaseResolution": 1,
  "PixelBandwidth": 2290,
  "ProcedureStepDescription": "localizers^fLoc",
  "ProtocolName": "task_fLoc_run-2",
  "PulseSequenceDetails": "%CustomerSeq%\\cmrr_mbep2d_bold",
  "ReceiveCoilActiveElements": "HC1-7;NC1,2",
  "ReceiveCoilName": "HeadNeck_64",
  "ReconMatrixPE": 104,
  "RepetitionTime": 1.49,
  "SAR": 0.0499534,
  "ScanOptions": "FS",
  "ScanningSequence": "EP",
  "SequenceName": "epfid2d1_104",
  "SequenceVariant": "SK\\SS",
  "SeriesDescription": "task_fLoc_run-2",
  "SeriesNumber": 16,
  "ShimSetting": [642, -7213, -8792, 689, 45, 7, 40, -14],
  "SliceThickness": 2,
  "SliceTiming": [0, 0.7825, 0.0975, 0.8825, 0.195, 0.98, 0.2925, 1.0775, 0.3925, 1.175, 0.49, 1.2725, 0.5875, 1.3725, 0.685, 0, 0.7825, 0.0975, 0.8825, 0.195, 0.98, 0.2925, 1.0775, 0.3925, 1.175, 0.49, 1.2725, 0.5875, 1.3725, 0.685, 0, 0.7825, 0.0975, 0.8825, 0.195, 0.98, 0.2925, 1.0775, 0.3925, 1.175, 0.49, 1.2725, 0.5875, 1.3725, 0.685, 0, 0.7825, 0.0975, 0.8825, 0.195, 0.98, 0.2925, 1.0775, 0.3925, 1.175, 0.49, 1.2725, 0.5875, 1.3725, 0.685],
  "SoftwareVersions": "syngo MR E11",
  "SpacingBetweenSlices": 2,
  "StationName": "MRC35049",
  "TaskName": "fLoc",
  "TotalReadoutTime": 0.0576811,
  "TxRefAmp": 233.864,
  "WipMemBlock": "4ee9b16e-f833-41f9-b154-5c265d3ae034||Sequence: R016 ve11c/master r/e634e98; Dec 19 2017 11:00:25 by eja",
  "dcmmeta_affine": [
    [-1.997692346572876, 0.03486992046236992, 0.08949572592973709, 104.99642944335938],
    [0.010646254755556583, 1.932449460029602, -0.5152918696403503, -75.16629028320312],
    [0.09545707702636719, 0.5142208933830261, 1.9304052591323853, -64.9503402709961],
    [0.0, 0.0, 0.0, 1.0]
],
  "dcmmeta_reorient_transform": [
    [0.0, -1.0, 0.0, 103.0],
    [1.0, 0.0, 0.0, 0.0],
    [0.0, 0.0, 1.0, 0.0],
    [0.0, 0.0, 0.0, 1.0]
],
  "dcmmeta_shape": [104, 104, 60, 155],
  "dcmmeta_slice_dim": 2,
  "dcmmeta_version": 0.6,
  "global": {
    "const": {
      "AcquisitionMatrix": [104, 0, 0, 104],
      "AngioFlag": "N",
      "BitsAllocated": 16,
      "BitsStored": 16,
      "BodyPartExamined": "BRAIN",
      "Columns": 832,
      "EchoNumbers": 1,
      "EchoTime": 37.0,
      "EchoTrainLength": 104,
      "FlipAngle": 52.0,
      "HighBit": 15,
      "ImageOrientationPatient": [0.99884615971651, -0.0053231272813, 0.0477285400524, 0.0174349606349, 0.96622473611362, -0.2571104460535],
      "ImagePositionPatient": [-848.44068778858, -823.41237449519, 140.44443903023],
      "ImageType": [
        "ORIGINAL",
        "PRIMARY",
        "M",
        "MB",
        "ND",
        "MOSAIC"
],
      "ImagedNucleus": "1H",
      "ImagingFrequency": 123.258917,
      "InPlanePhaseEncodingDirection": "COL",
      "MRAcquisitionType": "2D",
      "MagneticFieldStrength": 3.0,
      "Manufacturer": "SIEMENS",
      "ManufacturerModelName": "Prisma_fit",
      "Modality": "MR",
      "NumberOfAverages": 1.0,
      "NumberOfPhaseEncodingSteps": 104,
      "PercentPhaseFieldOfView": 100.0,
      "PercentSampling": 100.0,
      "PerformedProcedureStepStartTime": "135854.877000",
      "PhotometricInterpretation": "MONOCHROME2",
      "PixelBandwidth": 2290.0,
      "PixelRepresentation": 0,
      "PixelSpacing": [2.0, 2.0],
      "ProtocolName": "task_fLoc_run-2",
      "RepetitionTime": 1490.0,
      "Rows": 832,
      "SAR": 0.04995335378663,
      "SamplesPerPixel": 1,
      "ScanOptions": "FS",
      "ScanningSequence": "EP",
      "SequenceName": "epfid2d1_104",
      "SequenceVariant": [
        "SK",
        "SS"
],
      "SeriesDescription": "task_fLoc_run-2",
      "SeriesNumber": 16,
      "SeriesTime": "141557.828000",
      "SliceLocation": -38.625587267882,
      "SliceThickness": 2.0,
      "SmallestImagePixelValue": 0,
      "SoftwareVersions": "syngo MR E11",
      "SpacingBetweenSlices": 1.9999999556912,
      "SpecificCharacterSet": "ISO_IR 100",
      "StudyID": "1",
      "StudyTime": "135854.798000",
      "TransmitCoilName": "Body",
      "VariableFlipAngleFlag": "N",
      "WindowCenterWidthExplanation": "Algo1",
      "dBdt": 0.0},
    "slices": {}
  },
  "time": {
    "samples": {
      "AcquisitionNumber": [1, 2, 3, 4, 5, 6, 7, 8, 9, 10, 11, 12, 13, 14, 15, 16, 17, 18, 19, 20, 21, 22, 23, 24, 25, 26, 27, 28, 29, 30, 31, 32, 33, 34, 35, 36, 37, 38, 39, 40, 41, 42, 43, 44, 45, 46, 47, 48, 49, 50, 51, 52, 53, 54, 55, 56, 57, 58, 59, 60, 61, 62, 63, 64, 65, 66, 67, 68, 69, 70, 71, 72, 73, 74, 75, 76, 77, 78, 79, 80, 81, 82, 83, 84, 85, 86, 87, 88, 89, 90, 91, 92, 93, 94, 95, 96, 97, 98, 99, 100, 101, 102, 103, 104, 105, 106, 107, 108, 109, 110, 111, 112, 113, 114, 115, 116, 117, 118, 119, 120, 121, 122, 123, 124, 125, 126, 127, 128, 129, 130, 131, 132, 133, 134, 135, 136, 137, 138, 139, 140, 141, 142, 143, 144, 145, 146, 147, 148, 149, 150, 151, 152, 153, 154, 155],
      "AcquisitionTime": ["141441.837500", "141443.327500", "141444.817500", "141446.307500", "141447.797500", "141449.287500", "141450.777500", "141452.267500", "141453.757500", "141455.247500", "141456.737500", "141458.227500", "141459.717500", "141501.207500", "141502.697500", "141504.187500", "141505.677500", "141507.167500", "141508.657500", "141510.147500", "141511.637500", "141513.127500", "141514.617500", "141516.107500", "141517.597500", "141519.087500", "141520.577500", "141522.067500", "141523.557500", "141525.047500", "141526.537500", "141528.027500", "141529.517500", "141531.007500", "141532.497500", "141533.987500", "141535.477500", "141536.967500", "141538.457500", "141539.947500", "141541.437500", "141542.927500", "141544.417500", "141545.907500", "141547.397500", "141548.887500", "141550.377500", "141551.867500", "141553.357500", "141554.847500", "141556.337500", "141557.827500", "141559.317500", "141600.807500", "141602.297500", "141603.787500", "141605.277500", "141606.767500", "141608.257500", "141609.747500", "141611.237500", "141612.727500", "141614.217500", "141615.707500", "141617.197500", "141618.687500", "141620.177500", "141621.667500", "141623.157500", "141624.647500", "141626.137500", "141627.627500", "141629.117500", "141630.607500", "141632.097500", "141633.587500", "141635.077500", "141636.567500", "141638.057500", "141639.547500", "141641.037500", "141642.527500", "141644.017500", "141645.507500", "141646.997500", "141648.487500", "141649.977500", "141651.467500", "141652.957500", "141654.447500", "141655.937500", "141657.427500", "141658.917500", "141700.407500", "141701.897500", "141703.387500", "141704.877500", "141706.367500", "141707.857500", "141709.347500", "141710.837500", "141712.327500", "141713.817500", "141715.307500", "141716.797500", "141718.287500", "141719.777500", "141721.267500", "141722.757500", "141724.247500", "141725.737500", "141727.227500", "141728.717500", "141730.207500", "141731.697500", "141733.187500", "141734.677500", "141736.167500", "141737.657500", "141739.147500", "141740.637500", "141742.127500", "141743.617500", "141745.107500", "141746.597500", "141748.087500", "141749.577500", "141751.067500", "141752.557500", "141754.047500", "141755.537500", "141757.027500", "141758.517500", "141800.007500", "141801.497500", "141802.987500", "141804.477500", "141805.967500", "141807.457500", "141808.947500", "141810.437500", "141811.927500", "141813.417500", "141814.907500", "141816.397500", "141817.887500", "141819.377500", "141820.867500", "141822.357500", "141823.847500", "141825.337500", "141826.827500", "141828.317500", "141829.807500", "141831.297500"],
      "ContentTime": ["141557.832000", "141557.835000", "141557.839000", "141557.842000", "141557.846000", "141557.857000", "141557.860000", "141557.863000", "141557.867000", "141557.870000", "141557.873000", "141557.877000", "141557.880000", "141557.883000", "141557.887000", "141557.890000", "141557.893000", "141557.897000", "141557.900000", "141557.903000", "141557.907000", "141557.910000", "141617.787000", "141617.791000", "141617.794000", "141617.798000", "141617.801000", "141617.804000", "141617.808000", "141617.811000", "141617.814000", "141617.817000", "141617.821000", "141617.824000", "141617.828000", "141617.831000", "141617.835000", "141617.839000", "141617.842000", "141617.846000", "141617.849000", "141617.853000", "141637.787000", "141637.791000", "141637.794000", "141637.797000", "141637.801000", "141637.804000", "141637.807000", "141637.811000", "141637.814000", "141637.817000", "141637.821000", "141637.824000", "141637.827000", "141637.830000", "141637.834000", "141637.837000", "141637.840000", "141637.844000", "141637.847000", "141637.850000", "141637.854000", "141657.787000", "141657.791000", "141657.794000", "141657.798000", "141657.801000", "141657.804000", "141657.808000", "141657.811000", "141657.814000", "141657.818000", "141657.821000", "141657.824000", "141657.828000", "141657.831000", "141657.834000", "141657.837000", "141657.841000", "141657.846000", "141657.850000", "141657.853000", "141717.787000", "141717.791000", "141717.794000", "141717.798000", "141717.801000", "141717.805000", "141717.808000", "141717.811000", "141717.815000", "141717.818000", "141717.821000", "141717.825000", "141717.828000", "141717.832000", "141717.835000", "141717.838000", "141717.842000", "141717.845000", "141717.857000", "141717.860000", "141757.787000", "141757.791000", "141757.794000", "141757.798000", "141757.801000", "141757.804000", "141757.808000", "141757.811000", "141757.814000", "141757.818000", "141757.821000", "141757.824000", "141757.828000", "141757.831000", "141757.834000", "141757.838000", "141757.841000", "141757.844000", "141757.848000", "141757.851000", "141757.854000", "141757.860000", "141757.864000", "141757.867000", "141757.870000", "141757.874000", "141757.877000", "141757.881000", "141833.225000", "141833.229000", "141833.232000", "141833.236000", "141833.239000", "141833.242000", "141833.245000", "141833.249000", "141833.252000", "141833.255000", "141833.259000", "141833.262000", "141833.266000", "141833.269000", "141833.272000", "141833.276000", "141833.279000", "141833.282000", "141833.286000", "141833.289000", "141833.293000", "141833.296000", "141833.300000", "141833.304000"],
      "InstanceCreationTime": ["141557.832000", "141557.835000", "141557.839000", "141557.842000", "141557.846000", "141557.857000", "141557.860000", "141557.863000", "141557.867000", "141557.870000", "141557.873000", "141557.877000", "141557.880000", "141557.883000", "141557.887000", "141557.890000", "141557.893000", "141557.897000", "141557.900000", "141557.903000", "141557.907000", "141557.910000", "141617.787000", "141617.791000", "141617.794000", "141617.798000", "141617.801000", "141617.804000", "141617.808000", "141617.811000", "141617.814000", "141617.817000", "141617.821000", "141617.824000", "141617.828000", "141617.831000", "141617.835000", "141617.839000", "141617.842000", "141617.846000", "141617.849000", "141617.853000", "141637.787000", "141637.791000", "141637.794000", "141637.797000", "141637.801000", "141637.804000", "141637.807000", "141637.811000", "141637.814000", "141637.817000", "141637.821000", "141637.824000", "141637.827000", "141637.830000", "141637.834000", "141637.837000", "141637.840000", "141637.844000", "141637.847000", "141637.850000", "141637.854000", "141657.787000", "141657.791000", "141657.794000", "141657.798000", "141657.801000", "141657.804000", "141657.808000", "141657.811000", "141657.814000", "141657.818000", "141657.821000", "141657.824000", "141657.828000", "141657.831000", "141657.834000", "141657.837000", "141657.841000", "141657.846000", "141657.850000", "141657.853000", "141717.787000", "141717.791000", "141717.794000", "141717.798000", "141717.801000", "141717.805000", "141717.808000", "141717.811000", "141717.815000", "141717.818000", "141717.821000", "141717.825000", "141717.828000", "141717.832000", "141717.835000", "141717.838000", "141717.842000", "141717.845000", "141717.857000", "141717.860000", "141757.787000", "141757.791000", "141757.794000", "141757.798000", "141757.801000", "141757.804000", "141757.808000", "141757.811000", "141757.814000", "141757.818000", "141757.821000", "141757.824000", "141757.828000", "141757.831000", "141757.834000", "141757.838000", "141757.841000", "141757.844000", "141757.848000", "141757.851000", "141757.854000", "141757.860000", "141757.864000", "141757.867000", "141757.870000", "141757.874000", "141757.877000", "141757.881000", "141833.225000", "141833.229000", "141833.232000", "141833.236000", "141833.239000", "141833.242000", "141833.245000", "141833.249000", "141833.252000", "141833.255000", "141833.259000", "141833.262000", "141833.266000", "141833.269000", "141833.272000", "141833.276000", "141833.279000", "141833.282000", "141833.286000", "141833.289000", "141833.293000", "141833.296000", "141833.300000", "141833.304000"],
      "InstanceNumber": [1, 2, 3, 4, 5, 6, 7, 8, 9, 10, 11, 12, 13, 14, 15, 16, 17, 18, 19, 20, 21, 22, 23, 24, 25, 26, 27, 28, 29, 30, 31, 32, 33, 34, 35, 36, 37, 38, 39, 40, 41, 42, 43, 44, 45, 46, 47, 48, 49, 50, 51, 52, 53, 54, 55, 56, 57, 58, 59, 60, 61, 62, 63, 64, 65, 66, 67, 68, 69, 70, 71, 72, 73, 74, 75, 76, 77, 78, 79, 80, 81, 82, 83, 84, 85, 86, 87, 88, 89, 90, 91, 92, 93, 94, 95, 96, 97, 98, 99, 100, 101, 102, 103, 104, 105, 106, 107, 108, 109, 110, 111, 112, 113, 114, 115, 116, 117, 118, 119, 120, 121, 122, 123, 124, 125, 126, 127, 128, 129, 130, 131, 132, 133, 134, 135, 136, 137, 138, 139, 140, 141, 142, 143, 144, 145, 146, 147, 148, 149, 150, 151, 152, 153, 154, 155],
      "LargestImagePixelValue": [40761, 39260, 38309, 38841, 38524, 38783, 38381, 38447, 37689, 38447, 37774, 38202, 37996, 37865, 37869, 38046, 37875, 37939, 38013, 38242, 37772, 38009, 38229, 37987, 37596, 37688, 38277, 37999, 37920, 37970, 37675, 37935, 37879, 37646, 37786, 37869, 38033, 37807, 37748, 37970, 38071, 37862, 37780, 37861, 38066, 38300, 38420, 37726, 38293, 37706, 37946, 37568, 37914, 38197, 37908, 37869, 38566, 37832, 38023, 38155, 37854, 38029, 38121, 37881, 38130, 37732, 38162, 38098, 37936, 37878, 38428, 38125, 38033, 37979, 37850, 38070, 37597, 37787, 38304, 38110, 37917, 38001, 38051, 38096, 38228, 37860, 38238, 38092, 37906, 37857, 38332, 38145, 38127, 37953, 38108, 37880, 37749, 37941, 37817, 38092, 38108, 38072, 38263, 37851, 37924, 38252, 38745, 38002, 37768, 37864, 37961, 38089, 38273, 37840, 38070, 37501, 38020, 37844, 37471, 37980, 37693, 37825, 37739, 37915, 37674, 37909, 37862, 37742, 37822, 37655, 38027, 37887, 37950, 37839, 37580, 37775, 37648, 37669, 37751, 38146, 38057, 37924, 37759, 37897, 38036, 37810, 37967, 38221, 37814, 37954, 37971, 38149, 37790, 37663, 38238],
      "WindowCenter": [10212.0, 10179.0, 10156.0, 10143.0, 10126.0, 10122.0, 10130.0, 10140.0, 10137.0, 10140.0, 10128.0, 10135.0, 10152.0, 10154.0, 10147.0, 10133.0, 10111.0, 10105.0, 10113.0, 10121.0, 10117.0, 10114.0, 10106.0, 10106.0, 10110.0, 10116.0, 10124.0, 10131.0, 10127.0, 10126.0, 10129.0, 10142.0, 10135.0, 10120.0, 10117.0, 10116.0, 10122.0, 10126.0, 10136.0, 10143.0, 10135.0, 10126.0, 10124.0, 10132.0, 10135.0, 10140.0, 10141.0, 10127.0, 10110.0, 10095.0, 10100.0, 10096.0, 10115.0, 10125.0, 10111.0, 10094.0, 10093.0, 10088.0, 10094.0, 10102.0, 10106.0, 10108.0, 10107.0, 10107.0, 10105.0, 10108.0, 10123.0, 10124.0, 10115.0, 10108.0, 10113.0, 10114.0, 10115.0, 10124.0, 10127.0, 10126.0, 10113.0, 10111.0, 10121.0, 10115.0, 10119.0, 10134.0, 10136.0, 10126.0, 10111.0, 10108.0, 10122.0, 10126.0, 10127.0, 10126.0, 10132.0, 10125.0, 10117.0, 10108.0, 10116.0, 10120.0, 10127.0, 10134.0, 10127.0, 10127.0, 10133.0, 10141.0, 10142.0, 10121.0, 10111.0, 10115.0, 10129.0, 10119.0, 10113.0, 10102.0, 10093.0, 10091.0, 10106.0, 10125.0, 10146.0, 10147.0, 10137.0, 10119.0, 10111.0, 10109.0, 10102.0, 10109.0, 10102.0, 10107.0, 10103.0, 10118.0, 10122.0, 10135.0, 10136.0, 10120.0, 10109.0, 10094.0, 10099.0, 10101.0, 10105.0, 10111.0, 10111.0, 10095.0, 10090.0, 10090.0, 10107.0, 10116.0, 10112.0, 10111.0, 10119.0, 10119.0, 10118.0, 10118.0, 10125.0, 10143.0, 10145.0, 10121.0, 10096.0, 10092.0, 10089.0],
      "WindowWidth": [21754.0, 21656.0, 21594.0, 21554.0, 21513.0, 21500.0, 21518.0, 21541.0, 21540.0, 21542.0, 21520.0, 21534.0, 21575.0, 21580.0, 21560.0, 21525.0, 21476.0, 21461.0, 21480.0, 21497.0, 21491.0, 21480.0, 21464.0, 21466.0, 21476.0, 21490.0, 21506.0, 21520.0, 21512.0, 21511.0, 21522.0, 21549.0, 21532.0, 21498.0, 21489.0, 21486.0, 21497.0, 21511.0, 21535.0, 21549.0, 21532.0, 21510.0, 21507.0, 21524.0, 21532.0, 21535.0, 21538.0, 21509.0, 21469.0, 21440.0, 21448.0, 21444.0, 21483.0, 21508.0, 21477.0, 21437.0, 21430.0, 21422.0, 21434.0, 21453.0, 21462.0, 21470.0, 21467.0, 21466.0, 21461.0, 21471.0, 21502.0, 21506.0, 21485.0, 21468.0, 21479.0, 21482.0, 21484.0, 21505.0, 21515.0, 21509.0, 21485.0, 21477.0, 21496.0, 21485.0, 21496.0, 21529.0, 21533.0, 21509.0, 21476.0, 21469.0, 21499.0, 21510.0, 21512.0, 21506.0, 21519.0, 21507.0, 21488.0, 21469.0, 21486.0, 21498.0, 21513.0, 21528.0, 21516.0, 21516.0, 21527.0, 21543.0, 21544.0, 21498.0, 21475.0, 21483.0, 21510.0, 21494.0, 21481.0, 21456.0, 21435.0, 21428.0, 21461.0, 21510.0, 21561.0, 21560.0, 21536.0, 21496.0, 21475.0, 21469.0, 21454.0, 21470.0, 21457.0, 21465.0, 21459.0, 21493.0, 21505.0, 21530.0, 21528.0, 21492.0, 21465.0, 21434.0, 21444.0, 21451.0, 21463.0, 21476.0, 21476.0, 21438.0, 21425.0, 21425.0, 21464.0, 21486.0, 21481.0, 21477.0, 21494.0, 21496.0, 21492.0, 21490.0, 21507.0, 21548.0, 21552.0, 21498.0, 21439.0, 21426.0, 21422.0]
    },
    "slices": {}
  }
}