{
  "AcquisitionMatrixPE": 104,
  "AcquisitionNumber": 1,
  "AcquisitionTime": "14:14:41.837500",
  "BandwidthPerPixelPhaseEncode": 17.17,
  "BaseResolution": 104,
  "BodyPartExamined": "BRAIN",
  "CoilCombinationMethod": "Sum of Squares",
  "ConsistencyInfo": "N4_VE11C_LATEST_20160120",
  "ConversionSoftware": "dcm2niix",
  "ConversionSoftwareVersion": "v1.0.20211006",
  "DerivedVendorReportedEchoSpacing": 0.000560011,
  "DeviceSerialNumber": "167006",
  "DwellTime": 2.1e-06,
  "EchoTime": 0.037,
  "EchoTime1": 0.037,
  "EchoTime2": 0.001,
  "EchoTrainLength": 104,
  "EffectiveEchoSpacing": 0.000560011,
  "FlipAngle": 52,
  "HeudiconvVersion": "0.10.0",
  "ImageComments": "Unaliased MB4/PE3/LB",
  "ImageOrientationPatientDICOM": [0.998846, -0.00532313, 0.0477285, 0.017435, 0.966225, -0.25711],
  "ImageOrientationText": "Tra>Cor(-14.9)>Sag(2.6)",
  "ImageType": [
    "ORIGINAL",
    "PRIMARY",
    "P",
    "MB",
    "ND",
    "MOSAIC",
    "PHASE"
],
  "ImagingFrequency": 123.259,
  "InPlanePhaseEncodingDirectionDICOM": "COL",
  "InstitutionAddress": "Chemin Queen-Mary 4565,Montreal,District,CA,H3W 1W5",
  "InstitutionName": "IUGM",
  "InstitutionalDepartmentName": "Department",
  "MRAcquisitionType": "2D",
  "MagneticFieldStrength": 3,
  "Manufacturer": "Siemens",
  "ManufacturersModelName": "Prisma_fit",
  "MatrixCoilMode": "SENSE",
  "Modality": "MR",
  "MultibandAccelerationFactor": 4,
  "PartialFourier": 1,
  "PatientPosition": "HFS",
  "PercentPhaseFOV": 100,
  "PercentSampling": 100,
  "PhaseEncodingDirection": "j",
  "PhaseEncodingSteps": 104,
  "PhaseResolution": 1,
  "PixelBandwidth": 2290,
  "ProcedureStepDescription": "localizers^fLoc",
  "ProtocolName": "task_fLoc_run-2",
  "PulseSequenceDetails": "%CustomerSeq%\\cmrr_mbep2d_bold",
  "ReceiveCoilActiveElements": "HC1-7;NC1,2",
  "ReceiveCoilName": "HeadNeck_64",
  "ReconMatrixPE": 104,
  "RepetitionTime": 1.49,
  "SAR": 0.0499534,
  "ScanOptions": "FS",
  "ScanningSequence": "EP",
  "SequenceName": "epfid2d1_104",
  "SequenceVariant": "SK\\SS",
  "SeriesDescription": "task_fLoc_run-2",
  "SeriesNumber": 17,
  "ShimSetting": [642, -7213, -8792, 689, 45, 7, 40, -14],
  "SliceThickness": 2,
  "SliceTiming": [0, 0.7825, 0.0975, 0.8825, 0.195, 0.98, 0.2925, 1.0775, 0.3925, 1.175, 0.49, 1.2725, 0.5875, 1.3725, 0.685, 0, 0.7825, 0.0975, 0.8825, 0.195, 0.98, 0.2925, 1.0775, 0.3925, 1.175, 0.49, 1.2725, 0.5875, 1.3725, 0.685, 0, 0.7825, 0.0975, 0.8825, 0.195, 0.98, 0.2925, 1.0775, 0.3925, 1.175, 0.49, 1.2725, 0.5875, 1.3725, 0.685, 0, 0.7825, 0.0975, 0.8825, 0.195, 0.98, 0.2925, 1.0775, 0.3925, 1.175, 0.49, 1.2725, 0.5875, 1.3725, 0.685],
  "SoftwareVersions": "syngo MR E11",
  "SpacingBetweenSlices": 2,
  "StationName": "MRC35049",
  "TaskName": "fLoc",
  "TotalReadoutTime": 0.0576811,
  "TxRefAmp": 233.864,
  "WipMemBlock": "4ee9b16e-f833-41f9-b154-5c265d3ae034||Sequence: R016 ve11c/master r/e634e98; Dec 19 2017 11:00:25 by eja",
  "dcmmeta_affine": [
    [-1.997692346572876, 0.03486992046236992, 0.08949572592973709, 104.99642944335938],
    [0.010646254755556583, 1.932449460029602, -0.5152918696403503, -75.16629028320312],
    [0.09545707702636719, 0.5142208933830261, 1.9304052591323853, -64.9503402709961],
    [0.0, 0.0, 0.0, 1.0]
],
  "dcmmeta_reorient_transform": [
    [0.0, -1.0, 0.0, 103.0],
    [1.0, 0.0, 0.0, 0.0],
    [0.0, 0.0, 1.0, 0.0],
    [0.0, 0.0, 0.0, 1.0]
],
  "dcmmeta_shape": [104, 104, 60, 155],
  "dcmmeta_slice_dim": 2,
  "dcmmeta_version": 0.6,
  "global": {
    "const": {
      "AcquisitionMatrix": [104, 0, 0, 104],
      "AngioFlag": "N",
      "BitsAllocated": 16,
      "BitsStored": 16,
      "BodyPartExamined": "BRAIN",
      "Columns": 832,
      "EchoNumbers": 1,
      "EchoTime": 37.0,
      "EchoTrainLength": 104,
      "FlipAngle": 52.0,
      "HighBit": 15,
      "ImageOrientationPatient": [0.99884615971651, -0.0053231272813, 0.0477285400524, 0.0174349606349, 0.96622473611362, -0.2571104460535],
      "ImagePositionPatient": [-848.44068778858, -823.41237449519, 140.44443903023],
      "ImageType": [
        "ORIGINAL",
        "PRIMARY",
        "P",
        "MB",
        "ND",
        "MOSAIC"
],
      "ImagedNucleus": "1H",
      "ImagingFrequency": 123.258917,
      "InPlanePhaseEncodingDirection": "COL",
      "LargestImagePixelValue": 4095,
      "MRAcquisitionType": "2D",
      "MagneticFieldStrength": 3.0,
      "Manufacturer": "SIEMENS",
      "ManufacturerModelName": "Prisma_fit",
      "Modality": "MR",
      "NumberOfAverages": 1.0,
      "NumberOfPhaseEncodingSteps": 104,
      "PercentPhaseFieldOfView": 100.0,
      "PercentSampling": 100.0,
      "PerformedProcedureStepStartTime": "135854.877000",
      "PhotometricInterpretation": "MONOCHROME2",
      "PixelBandwidth": 2290.0,
      "PixelRepresentation": 0,
      "PixelSpacing": [2.0, 2.0],
      "ProtocolName": "task_fLoc_run-2",
      "RepetitionTime": 1490.0,
      "RescaleIntercept": -4096.0,
      "RescaleSlope": 2.0,
      "RescaleType": "US",
      "Rows": 832,
      "SAR": 0.04995335378663,
      "SamplesPerPixel": 1,
      "ScanOptions": "FS",
      "ScanningSequence": "EP",
      "SequenceName": "epfid2d1_104",
      "SequenceVariant": [
        "SK",
        "SS"
],
      "SeriesDescription": "task_fLoc_run-2",
      "SeriesNumber": 17,
      "SeriesTime": "141557.945000",
      "SliceLocation": -38.625587267882,
      "SliceThickness": 2.0,
      "SmallestImagePixelValue": 0,
      "SoftwareVersions": "syngo MR E11",
      "SpacingBetweenSlices": 1.9999999556912,
      "SpecificCharacterSet": "ISO_IR 100",
      "StudyID": "1",
      "StudyTime": "135854.798000",
      "TransmitCoilName": "Body",
      "VariableFlipAngleFlag": "N",
      "WindowCenterWidthExplanation": "Algo1",
      "dBdt": 0.0},
    "slices": {}
  },
  "time": {
    "samples": {
      "AcquisitionNumber": [1, 2, 3, 4, 5, 6, 7, 8, 9, 10, 11, 12, 13, 14, 15, 16, 17, 18, 19, 20, 21, 22, 23, 24, 25, 26, 27, 28, 29, 30, 31, 32, 33, 34, 35, 36, 37, 38, 39, 40, 41, 42, 43, 44, 45, 46, 47, 48, 49, 50, 51, 52, 53, 54, 55, 56, 57, 58, 59, 60, 61, 62, 63, 64, 65, 66, 67, 68, 69, 70, 71, 72, 73, 74, 75, 76, 77, 78, 79, 80, 81, 82, 83, 84, 85, 86, 87, 88, 89, 90, 91, 92, 93, 94, 95, 96, 97, 98, 99, 100, 101, 102, 103, 104, 105, 106, 107, 108, 109, 110, 111, 112, 113, 114, 115, 116, 117, 118, 119, 120, 121, 122, 123, 124, 125, 126, 127, 128, 129, 130, 131, 132, 133, 134, 135, 136, 137, 138, 139, 140, 141, 142, 143, 144, 145, 146, 147, 148, 149, 150, 151, 152, 153, 154, 155],
      "AcquisitionTime": ["141441.837500", "141443.327500", "141444.817500", "141446.307500", "141447.797500", "141449.287500", "141450.777500", "141452.267500", "141453.757500", "141455.247500", "141456.737500", "141458.227500", "141459.717500", "141501.207500", "141502.697500", "141504.187500", "141505.677500", "141507.167500", "141508.657500", "141510.147500", "141511.637500", "141513.127500", "141514.617500", "141516.107500", "141517.597500", "141519.087500", "141520.577500", "141522.067500", "141523.557500", "141525.047500", "141526.537500", "141528.027500", "141529.517500", "141531.007500", "141532.497500", "141533.987500", "141535.477500", "141536.967500", "141538.457500", "141539.947500", "141541.437500", "141542.927500", "141544.417500", "141545.907500", "141547.397500", "141548.887500", "141550.377500", "141551.867500", "141553.357500", "141554.847500", "141556.337500", "141557.827500", "141559.317500", "141600.807500", "141602.297500", "141603.787500", "141605.277500", "141606.767500", "141608.257500", "141609.747500", "141611.237500", "141612.727500", "141614.217500", "141615.707500", "141617.197500", "141618.687500", "141620.177500", "141621.667500", "141623.157500", "141624.647500", "141626.137500", "141627.627500", "141629.117500", "141630.607500", "141632.097500", "141633.587500", "141635.077500", "141636.567500", "141638.057500", "141639.547500", "141641.037500", "141642.527500", "141644.017500", "141645.507500", "141646.997500", "141648.487500", "141649.977500", "141651.467500", "141652.957500", "141654.447500", "141655.937500", "141657.427500", "141658.917500", "141700.407500", "141701.897500", "141703.387500", "141704.877500", "141706.367500", "141707.857500", "141709.347500", "141710.837500", "141712.327500", "141713.817500", "141715.307500", "141716.797500", "141718.287500", "141719.777500", "141721.267500", "141722.757500", "141724.247500", "141725.737500", "141727.227500", "141728.717500", "141730.207500", "141731.697500", "141733.187500", "141734.677500", "141736.167500", "141737.657500", "141739.147500", "141740.637500", "141742.127500", "141743.617500", "141745.107500", "141746.597500", "141748.087500", "141749.577500", "141751.067500", "141752.557500", "141754.047500", "141755.537500", "141757.027500", "141758.517500", "141800.007500", "141801.497500", "141802.987500", "141804.477500", "141805.967500", "141807.457500", "141808.947500", "141810.437500", "141811.927500", "141813.417500", "141814.907500", "141816.397500", "141817.887500", "141819.377500", "141820.867500", "141822.357500", "141823.847500", "141825.337500", "141826.827500", "141828.317500", "141829.807500", "141831.297500"],
      "ContentTime": ["141557.947000", "141557.950000", "141557.952000", "141557.955000", "141557.957000", "141557.960000", "141557.962000", "141557.965000", "141557.968000", "141557.970000", "141557.973000", "141557.975000", "141557.978000", "141557.980000", "141557.983000", "141557.985000", "141557.988000", "141557.990000", "141557.993000", "141557.995000", "141557.998000", "141558.001000", "141617.906000", "141617.908000", "141617.911000", "141617.913000", "141617.916000", "141617.918000", "141617.921000", "141617.923000", "141617.926000", "141617.928000", "141617.931000", "141617.933000", "141617.936000", "141617.938000", "141617.941000", "141617.943000", "141617.946000", "141617.948000", "141617.951000", "141617.953000", "141637.893000", "141637.896000", "141637.898000", "141637.901000", "141637.903000", "141637.906000", "141637.908000", "141637.911000", "141637.913000", "141637.916000", "141637.918000", "141637.921000", "141637.923000", "141637.926000", "141637.929000", "141637.931000", "141637.934000", "141637.936000", "141637.939000", "141637.941000", "141637.947000", "141657.898000", "141657.900000", "141657.903000", "141657.905000", "141657.908000", "141657.911000", "141657.913000", "141657.916000", "141657.918000", "141657.921000", "141657.923000", "141657.926000", "141657.928000", "141657.931000", "141657.933000", "141657.936000", "141657.940000", "141657.943000", "141657.945000", "141657.948000", "141717.896000", "141717.899000", "141717.902000", "141717.904000", "141717.907000", "141717.909000", "141717.912000", "141717.916000", "141717.919000", "141717.921000", "141717.923000", "141717.926000", "141717.928000", "141717.931000", "141717.933000", "141717.936000", "141717.938000", "141717.941000", "141717.943000", "141717.946000", "141757.933000", "141757.936000", "141757.938000", "141757.941000", "141757.943000", "141757.946000", "141757.948000", "141757.951000", "141757.953000", "141757.956000", "141757.959000", "141757.961000", "141757.965000", "141757.967000", "141757.970000", "141757.972000", "141757.975000", "141757.978000", "141757.980000", "141757.983000", "141757.985000", "141757.988000", "141757.990000", "141757.993000", "141757.995000", "141757.998000", "141758.001000", "141758.004000", "141833.349000", "141833.352000", "141833.354000", "141833.357000", "141833.359000", "141833.362000", "141833.365000", "141833.367000", "141833.370000", "141833.372000", "141833.375000", "141833.377000", "141833.380000", "141833.383000", "141833.385000", "141833.388000", "141833.390000", "141833.393000", "141833.396000", "141833.398000", "141833.401000", "141833.403000", "141833.406000", "141833.408000"],
      "InstanceCreationTime": ["141557.947000", "141557.950000", "141557.952000", "141557.955000", "141557.957000", "141557.960000", "141557.962000", "141557.965000", "141557.968000", "141557.970000", "141557.973000", "141557.975000", "141557.978000", "141557.980000", "141557.983000", "141557.985000", "141557.988000", "141557.990000", "141557.993000", "141557.995000", "141557.998000", "141558.001000", "141617.906000", "141617.908000", "141617.911000", "141617.913000", "141617.916000", "141617.918000", "141617.921000", "141617.923000", "141617.926000", "141617.928000", "141617.931000", "141617.933000", "141617.936000", "141617.938000", "141617.941000", "141617.943000", "141617.946000", "141617.948000", "141617.951000", "141617.953000", "141637.893000", "141637.896000", "141637.898000", "141637.901000", "141637.903000", "141637.906000", "141637.908000", "141637.911000", "141637.913000", "141637.916000", "141637.918000", "141637.921000", "141637.923000", "141637.926000", "141637.929000", "141637.931000", "141637.934000", "141637.936000", "141637.939000", "141637.941000", "141637.947000", "141657.898000", "141657.900000", "141657.903000", "141657.905000", "141657.908000", "141657.911000", "141657.913000", "141657.916000", "141657.918000", "141657.921000", "141657.923000", "141657.926000", "141657.928000", "141657.931000", "141657.933000", "141657.936000", "141657.940000", "141657.943000", "141657.945000", "141657.948000", "141717.896000", "141717.899000", "141717.902000", "141717.904000", "141717.907000", "141717.909000", "141717.912000", "141717.916000", "141717.919000", "141717.921000", "141717.923000", "141717.926000", "141717.928000", "141717.931000", "141717.933000", "141717.936000", "141717.938000", "141717.941000", "141717.943000", "141717.946000", "141757.933000", "141757.936000", "141757.938000", "141757.941000", "141757.943000", "141757.946000", "141757.948000", "141757.951000", "141757.953000", "141757.956000", "141757.959000", "141757.961000", "141757.965000", "141757.967000", "141757.970000", "141757.972000", "141757.975000", "141757.978000", "141757.980000", "141757.983000", "141757.985000", "141757.988000", "141757.990000", "141757.993000", "141757.995000", "141757.998000", "141758.001000", "141758.004000", "141833.349000", "141833.352000", "141833.354000", "141833.357000", "141833.359000", "141833.362000", "141833.365000", "141833.367000", "141833.370000", "141833.372000", "141833.375000", "141833.377000", "141833.380000", "141833.383000", "141833.385000", "141833.388000", "141833.390000", "141833.393000", "141833.396000", "141833.398000", "141833.401000", "141833.403000", "141833.406000", "141833.408000"],
      "InstanceNumber": [1, 2, 3, 4, 5, 6, 7, 8, 9, 10, 11, 12, 13, 14, 15, 16, 17, 18, 19, 20, 21, 22, 23, 24, 25, 26, 27, 28, 29, 30, 31, 32, 33, 34, 35, 36, 37, 38, 39, 40, 41, 42, 43, 44, 45, 46, 47, 48, 49, 50, 51, 52, 53, 54, 55, 56, 57, 58, 59, 60, 61, 62, 63, 64, 65, 66, 67, 68, 69, 70, 71, 72, 73, 74, 75, 76, 77, 78, 79, 80, 81, 82, 83, 84, 85, 86, 87, 88, 89, 90, 91, 92, 93, 94, 95, 96, 97, 98, 99, 100, 101, 102, 103, 104, 105, 106, 107, 108, 109, 110, 111, 112, 113, 114, 115, 116, 117, 118, 119, 120, 121, 122, 123, 124, 125, 126, 127, 128, 129, 130, 131, 132, 133, 134, 135, 136, 137, 138, 139, 140, 141, 142, 143, 144, 145, 146, 147, 148, 149, 150, 151, 152, 153, 154, 155],
      "WindowCenter": [4796.0, 4794.0, 4792.0, 4794.0, 4796.0, 4798.0, 4798.0, 4794.0, 4794.0, 4798.0, 4792.0, 4792.0, 4794.0, 4798.0, 4792.0, 4794.0, 4794.0, 4798.0, 4794.0, 4798.0, 4788.0, 4798.0, 4796.0, 4796.0, 4792.0, 4798.0, 4794.0, 4798.0, 4790.0, 4794.0, 4794.0, 4798.0, 4792.0, 4794.0, 4796.0, 4798.0, 4796.0, 4794.0, 4794.0, 4794.0, 4796.0, 4792.0, 4798.0, 4792.0, 4790.0, 4792.0, 4822.0, 4820.0, 4824.0, 4796.0, 4796.0, 4790.0, 4792.0, 4768.0, 4794.0, 4794.0, 4798.0, 4794.0, 4794.0, 4794.0, 4800.0, 4790.0, 4796.0, 4792.0, 4798.0, 4790.0, 4796.0, 4788.0, 4796.0, 4794.0, 4800.0, 4794.0, 4794.0, 4794.0, 4794.0, 4794.0, 4794.0, 4792.0, 4796.0, 4798.0, 4794.0, 4798.0, 4794.0, 4794.0, 4794.0, 4796.0, 4794.0, 4796.0, 4792.0, 4794.0, 4790.0, 4794.0, 4794.0, 4796.0, 4796.0, 4794.0, 4796.0, 4796.0, 4792.0, 4798.0, 4790.0, 4796.0, 4794.0, 4798.0, 4796.0, 4796.0, 4794.0, 4794.0, 4794.0, 4792.0, 4792.0, 4794.0, 4794.0, 4820.0, 4794.0, 4794.0, 4796.0, 4800.0, 4800.0, 4792.0, 4798.0, 4794.0, 4794.0, 4792.0, 4796.0, 4794.0, 4796.0, 4794.0, 4796.0, 4794.0, 4792.0, 4796.0, 4796.0, 4794.0, 4796.0, 4792.0, 4794.0, 4794.0, 4790.0, 4796.0, 4796.0, 4796.0, 4790.0, 4794.0, 4790.0, 4796.0, 4796.0, 4796.0, 4796.0, 4798.0, 4790.0, 4794.0, 4796.0, 4796.0, 4792.0],
      "WindowWidth": [18622.0, 18626.0, 18618.0, 18618.0, 18618.0, 18628.0, 18626.0, 18626.0, 18624.0, 18620.0, 18622.0, 18618.0, 18618.0, 18626.0, 18620.0, 18622.0, 18618.0, 18628.0, 18620.0, 18622.0, 18620.0, 18624.0, 18622.0, 18626.0, 18620.0, 18628.0, 18622.0, 18628.0, 18612.0, 18620.0, 18624.0, 18624.0, 18618.0, 18626.0, 18618.0, 18620.0, 18624.0, 18622.0, 18624.0, 18622.0, 18626.0, 18620.0, 18626.0, 18620.0, 18616.0, 18612.0, 18660.0, 18658.0, 18660.0, 18624.0, 18622.0, 18622.0, 18620.0, 18584.0, 18620.0, 18624.0, 18624.0, 18622.0, 18622.0, 18618.0, 18626.0, 18618.0, 18620.0, 18618.0, 18624.0, 18618.0, 18626.0, 18620.0, 18622.0, 18622.0, 18622.0, 18622.0, 18624.0, 18620.0, 18618.0, 18618.0, 18614.0, 18620.0, 18622.0, 18624.0, 18620.0, 18626.0, 18620.0, 18620.0, 18622.0, 18622.0, 18620.0, 18628.0, 18618.0, 18620.0, 18612.0, 18620.0, 18618.0, 18626.0, 18618.0, 18618.0, 18622.0, 18624.0, 18622.0, 18624.0, 18614.0, 18624.0, 18626.0, 18626.0, 18624.0, 18626.0, 18624.0, 18622.0, 18618.0, 18616.0, 18620.0, 18622.0, 18622.0, 18656.0, 18622.0, 18620.0, 18626.0, 18624.0, 18628.0, 18614.0, 18624.0, 18622.0, 18618.0, 18618.0, 18618.0, 18616.0, 18620.0, 18622.0, 18618.0, 18626.0, 18614.0, 18620.0, 18626.0, 18622.0, 18620.0, 18620.0, 18618.0, 18620.0, 18614.0, 18624.0, 18622.0, 18620.0, 18614.0, 18620.0, 18614.0, 18622.0, 18620.0, 18624.0, 18624.0, 18626.0, 18612.0, 18624.0, 18620.0, 18622.0, 18622.0]
    },
    "slices": {}
  }
}