{
  "AcquisitionMatrixPE": 104,
  "AcquisitionNumber": 1,
  "AcquisitionTime": "11:33:3.895000",
  "BandwidthPerPixelPhaseEncode": 17.17,
  "BaseResolution": 104,
  "BodyPartExamined": "BRAIN",
  "CoilCombinationMethod": "Sum of Squares",
  "ConsistencyInfo": "N4_VE11C_LATEST_20160120",
  "ConversionSoftware": "dcm2niix",
  "ConversionSoftwareVersion": "v1.0.20211006",
  "DerivedVendorReportedEchoSpacing": 0.000560011,
  "DeviceSerialNumber": "167006",
  "DwellTime": 2.1e-06,
  "EchoTime": 0.037,
  "EchoTrainLength": 104,
  "EffectiveEchoSpacing": 0.000560011,
  "FlipAngle": 52,
  "HeudiconvVersion": "0.10.0",
  "ImageComments": "Unaliased MB4/PE3/LB",
  "ImageOrientationPatientDICOM": [0.999612, 0.0180919, 0.021193, -0.00488504, 0.86256, -0.505932],
  "ImageOrientationText": "Tra>Cor(-30.4)>Sag(1.6)",
  "ImageType": [
    "ORIGINAL",
    "PRIMARY",
    "M",
    "MB",
    "ND",
    "MOSAIC"
],
  "ImagingFrequency": 123.259,
  "InPlanePhaseEncodingDirectionDICOM": "COL",
  "InstitutionAddress": "Chemin Queen-Mary 4565,Montreal,District,CA,H3W 1W5",
  "InstitutionName": "IUGM",
  "InstitutionalDepartmentName": "Department",
  "MRAcquisitionType": "2D",
  "MagneticFieldStrength": 3,
  "Manufacturer": "Siemens",
  "ManufacturersModelName": "Prisma_fit",
  "MatrixCoilMode": "SENSE",
  "Modality": "MR",
  "MultibandAccelerationFactor": 4,
  "PartialFourier": 1,
  "PatientPosition": "HFS",
  "PercentPhaseFOV": 100,
  "PercentSampling": 100,
  "PhaseEncodingDirection": "j",
  "PhaseEncodingSteps": 104,
  "PhaseResolution": 1,
  "PixelBandwidth": 2290,
  "ProcedureStepDescription": "localizers^fLoc",
  "ProtocolName": "task_fLoc_run-1",
  "PulseSequenceDetails": "%CustomerSeq%\\cmrr_mbep2d_bold",
  "ReceiveCoilActiveElements": "HC1-7;NC1,2",
  "ReceiveCoilName": "HeadNeck_64",
  "ReconMatrixPE": 104,
  "RepetitionTime": 1.49,
  "SAR": 0.0414216,
  "ScanOptions": "FS",
  "ScanningSequence": "EP",
  "SequenceName": "epfid2d1_104",
  "SequenceVariant": "SK\\SS",
  "SeriesDescription": "task_fLoc_run-1",
  "SeriesNumber": 10,
  "ShimSetting": [613, -7200, -8872, 286, -15, -193, -17, -31],
  "SliceThickness": 2,
  "SliceTiming": [0, 0.785, 0.1, 0.8825, 0.1975, 0.98, 0.295, 1.08, 0.3925, 1.1775, 0.49, 1.275, 0.59, 1.3725, 0.6875, 0, 0.785, 0.1, 0.8825, 0.1975, 0.98, 0.295, 1.08, 0.3925, 1.1775, 0.49, 1.275, 0.59, 1.3725, 0.6875, 0, 0.785, 0.1, 0.8825, 0.1975, 0.98, 0.295, 1.08, 0.3925, 1.1775, 0.49, 1.275, 0.59, 1.3725, 0.6875, 0, 0.785, 0.1, 0.8825, 0.1975, 0.98, 0.295, 1.08, 0.3925, 1.1775, 0.49, 1.275, 0.59, 1.3725, 0.6875],
  "SoftwareVersions": "syngo MR E11",
  "SpacingBetweenSlices": 2,
  "StationName": "MRC35049",
  "TaskName": "fLoc",
  "TotalReadoutTime": 0.0576811,
  "TxRefAmp": 254.054,
  "WipMemBlock": "a78b3121-74b0-43ff-bbf5-f51017316c36||Sequence: R016 ve11c/master r/e634e98; Dec 19 2017 11:00:25 by eja",
  "dcmmeta_affine": [
    [-1.9992233514785767, -0.009770081378519535, 0.054866909980773926, 105.9170150756836],
    [-0.036183781921863556, 1.7251193523406982, -1.0112636089324951, -49.36174392700195],
    [0.04238592088222504, 1.0118635892868042, 1.7246261835098267, -96.7971420288086],
    [0.0, 0.0, 0.0, 1.0]
],
  "dcmmeta_reorient_transform": [
    [0.0, -1.0, 0.0, 103.0],
    [1.0, 0.0, 0.0, 0.0],
    [0.0, 0.0, 1.0, 0.0],
    [0.0, 0.0, 0.0, 1.0]
],
  "dcmmeta_shape": [104, 104, 60, 121],
  "dcmmeta_slice_dim": 2,
  "dcmmeta_version": 0.6,
  "global": {
    "const": {
      "AcquisitionMatrix": [104, 0, 0, 104],
      "AngioFlag": "N",
      "BitsAllocated": 16,
      "BitsStored": 16,
      "BodyPartExamined": "BRAIN",
      "Columns": 832,
      "EchoNumbers": 1,
      "EchoTime": 37.0,
      "EchoTrainLength": 104,
      "FlipAngle": 52.0,
      "HighBit": 15,
      "ImageOrientationPatient": [0.99961169557091, 0.01809189112065, 0.02119295999942, -0.0048850406371, 0.86255966637292, -0.5059317724008],
      "ImagePositionPatient": [-829.07170158929, -769.43988117401, 360.31465480856],
      "ImageType": [
        "ORIGINAL",
        "PRIMARY",
        "M",
        "MB",
        "ND",
        "MOSAIC"
],
      "ImagedNucleus": "1H",
      "ImagingFrequency": 123.258914,
      "InPlanePhaseEncodingDirection": "COL",
      "MRAcquisitionType": "2D",
      "MagneticFieldStrength": 3.0,
      "Manufacturer": "SIEMENS",
      "ManufacturerModelName": "Prisma_fit",
      "Modality": "MR",
      "NumberOfAverages": 1.0,
      "NumberOfPhaseEncodingSteps": 104,
      "PercentPhaseFieldOfView": 100.0,
      "PercentSampling": 100.0,
      "PerformedProcedureStepStartTime": "112931.368000",
      "PhotometricInterpretation": "MONOCHROME2",
      "PixelBandwidth": 2290.0,
      "PixelRepresentation": 0,
      "PixelSpacing": [2.0, 2.0],
      "ProtocolName": "task_fLoc_run-1",
      "RepetitionTime": 1490.0,
      "Rows": 832,
      "SAR": 0.0414215952727,
      "SamplesPerPixel": 1,
      "ScanOptions": "FS",
      "ScanningSequence": "EP",
      "SequenceName": "epfid2d1_104",
      "SequenceVariant": [
        "SK",
        "SS"
],
      "SeriesDescription": "task_fLoc_run-1",
      "SeriesNumber": 10,
      "SeriesTime": "113434.852000",
      "SliceLocation": -55.604911254541,
      "SliceThickness": 2.0,
      "SmallestImagePixelValue": 0,
      "SoftwareVersions": "syngo MR E11",
      "SpacingBetweenSlices": 1.9999999842732,
      "SpecificCharacterSet": "ISO_IR 100",
      "StudyID": "1",
      "StudyTime": "112931.287000",
      "TransmitCoilName": "Body",
      "VariableFlipAngleFlag": "N",
      "WindowCenterWidthExplanation": "Algo1",
      "dBdt": 0.0},
    "slices": {}
  },
  "time": {
    "samples": {
      "AcquisitionNumber": [1, 2, 3, 4, 5, 6, 7, 8, 9, 10, 11, 12, 13, 14, 15, 16, 17, 18, 19, 20, 21, 22, 23, 24, 25, 26, 27, 28, 29, 30, 31, 32, 33, 34, 35, 36, 37, 38, 39, 40, 41, 42, 43, 44, 45, 46, 47, 48, 49, 50, 51, 52, 53, 54, 55, 56, 57, 58, 59, 60, 61, 62, 63, 64, 65, 66, 67, 68, 69, 70, 71, 72, 73, 74, 75, 76, 77, 78, 79, 80, 81, 82, 83, 84, 85, 86, 87, 88, 89, 90, 91, 92, 93, 94, 95, 96, 97, 98, 99, 100, 101, 102, 103, 104, 105, 106, 107, 108, 109, 110, 111, 112, 113, 114, 115, 116, 117, 118, 119, 120, 121],
      "AcquisitionTime": ["113303.895000", "113305.385000", "113306.875000", "113308.365000", "113309.855000", "113311.345000", "113312.835000", "113314.325000", "113315.815000", "113317.305000", "113318.795000", "113320.285000", "113321.775000", "113323.265000", "113324.755000", "113326.245000", "113327.735000", "113329.225000", "113330.715000", "113332.205000", "113333.695000", "113335.185000", "113336.675000", "113338.165000", "113339.655000", "113341.145000", "113342.635000", "113344.125000", "113345.615000", "113347.105000", "113348.595000", "113350.085000", "113351.575000", "113353.065000", "113354.555000", "113356.045000", "113357.535000", "113359.025000", "113400.515000", "113402.005000", "113403.495000", "113404.985000", "113406.475000", "113407.965000", "113409.455000", "113410.945000", "113412.435000", "113413.925000", "113415.415000", "113416.905000", "113418.395000", "113419.885000", "113421.375000", "113422.865000", "113424.355000", "113425.845000", "113427.335000", "113428.825000", "113430.315000", "113431.805000", "113433.295000", "113434.785000", "113436.275000", "113437.765000", "113439.255000", "113440.745000", "113442.235000", "113443.725000", "113445.215000", "113446.705000", "113448.195000", "113449.685000", "113451.175000", "113452.665000", "113454.155000", "113455.645000", "113457.135000", "113458.625000", "113500.115000", "113501.605000", "113503.095000", "113504.585000", "113506.075000", "113507.565000", "113509.055000", "113510.545000", "113512.035000", "113513.525000", "113515.015000", "113516.505000", "113517.995000", "113519.485000", "113520.975000", "113522.465000", "113523.955000", "113525.445000", "113526.935000", "113528.425000", "113529.915000", "113531.405000", "113532.895000", "113534.385000", "113535.875000", "113537.365000", "113538.855000", "113540.345000", "113541.835000", "113543.325000", "113544.815000", "113546.305000", "113547.795000", "113549.285000", "113550.775000", "113552.265000", "113553.755000", "113555.245000", "113556.735000", "113558.225000", "113559.715000", "113601.205000", "113602.695000"],
      "ContentTime": ["113434.856000", "113434.859000", "113434.863000", "113434.866000", "113434.869000", "113434.873000", "113434.876000", "113434.879000", "113434.883000", "113434.886000", "113434.889000", "113434.893000", "113434.896000", "113434.899000", "113434.903000", "113434.906000", "113434.909000", "113434.912000", "113434.916000", "113434.919000", "113434.928000", "113434.932000", "113434.935000", "113434.938000", "113434.941000", "113434.944000", "113434.948000", "113434.951000", "113434.954000", "113434.965000", "113434.969000", "113434.972000", "113434.975000", "113434.978000", "113434.981000", "113454.826000", "113454.830000", "113454.833000", "113454.836000", "113454.839000", "113454.843000", "113454.846000", "113454.849000", "113454.852000", "113454.855000", "113454.859000", "113454.862000", "113454.865000", "113454.868000", "113454.872000", "113454.875000", "113454.878000", "113454.882000", "113454.885000", "113454.888000", "113514.826000", "113514.830000", "113514.833000", "113514.836000", "113514.839000", "113514.842000", "113514.846000", "113514.849000", "113514.852000", "113514.856000", "113514.859000", "113514.862000", "113514.866000", "113514.869000", "113514.872000", "113514.875000", "113514.879000", "113514.882000", "113514.885000", "113514.888000", "113534.826000", "113534.830000", "113534.833000", "113534.836000", "113534.839000", "113534.843000", "113534.846000", "113534.849000", "113534.853000", "113534.856000", "113534.859000", "113534.862000", "113534.866000", "113534.869000", "113534.872000", "113534.875000", "113534.878000", "113534.882000", "113534.885000", "113534.888000", "113606.088000", "113606.091000", "113606.095000", "113606.098000", "113606.101000", "113606.104000", "113606.108000", "113606.111000", "113606.114000", "113606.117000", "113606.121000", "113606.124000", "113606.127000", "113606.130000", "113606.133000", "113606.137000", "113606.140000", "113606.143000", "113606.146000", "113606.150000", "113606.153000", "113606.157000", "113606.161000", "113606.164000", "113606.168000", "113606.171000"],
      "InstanceCreationTime": ["113434.856000", "113434.859000", "113434.863000", "113434.866000", "113434.869000", "113434.873000", "113434.876000", "113434.879000", "113434.883000", "113434.886000", "113434.889000", "113434.893000", "113434.896000", "113434.899000", "113434.903000", "113434.906000", "113434.909000", "113434.912000", "113434.916000", "113434.919000", "113434.928000", "113434.932000", "113434.935000", "113434.938000", "113434.941000", "113434.944000", "113434.948000", "113434.951000", "113434.954000", "113434.965000", "113434.969000", "113434.972000", "113434.975000", "113434.978000", "113434.981000", "113454.826000", "113454.830000", "113454.833000", "113454.836000", "113454.839000", "113454.843000", "113454.846000", "113454.849000", "113454.852000", "113454.855000", "113454.859000", "113454.862000", "113454.865000", "113454.868000", "113454.872000", "113454.875000", "113454.878000", "113454.882000", "113454.885000", "113454.888000", "113514.826000", "113514.830000", "113514.833000", "113514.836000", "113514.839000", "113514.842000", "113514.846000", "113514.849000", "113514.852000", "113514.856000", "113514.859000", "113514.862000", "113514.866000", "113514.869000", "113514.872000", "113514.875000", "113514.879000", "113514.882000", "113514.885000", "113514.888000", "113534.826000", "113534.830000", "113534.833000", "113534.836000", "113534.839000", "113534.843000", "113534.846000", "113534.849000", "113534.853000", "113534.856000", "113534.859000", "113534.862000", "113534.866000", "113534.869000", "113534.872000", "113534.875000", "113534.878000", "113534.882000", "113534.885000", "113534.888000", "113606.088000", "113606.091000", "113606.095000", "113606.098000", "113606.101000", "113606.104000", "113606.108000", "113606.111000", "113606.114000", "113606.117000", "113606.121000", "113606.124000", "113606.127000", "113606.130000", "113606.133000", "113606.137000", "113606.140000", "113606.143000", "113606.146000", "113606.150000", "113606.153000", "113606.157000", "113606.161000", "113606.164000", "113606.168000", "113606.171000"],
      "InstanceNumber": [1, 2, 3, 4, 5, 6, 7, 8, 9, 10, 11, 12, 13, 14, 15, 16, 17, 18, 19, 20, 21, 22, 23, 24, 25, 26, 27, 28, 29, 30, 31, 32, 33, 34, 35, 36, 37, 38, 39, 40, 41, 42, 43, 44, 45, 46, 47, 48, 49, 50, 51, 52, 53, 54, 55, 56, 57, 58, 59, 60, 61, 62, 63, 64, 65, 66, 67, 68, 69, 70, 71, 72, 73, 74, 75, 76, 77, 78, 79, 80, 81, 82, 83, 84, 85, 86, 87, 88, 89, 90, 91, 92, 93, 94, 95, 96, 97, 98, 99, 100, 101, 102, 103, 104, 105, 106, 107, 108, 109, 110, 111, 112, 113, 114, 115, 116, 117, 118, 119, 120, 121],
      "LargestImagePixelValue": [44096, 43225, 42550, 43111, 42416, 42043, 42182, 42121, 41919, 41689, 42158, 41882, 42031, 42131, 42637, 42608, 42797, 42823, 43111, 42336, 42342, 42331, 42516, 41803, 43377, 43116, 42588, 42727, 43283, 42912, 42583, 41975, 42558, 41761, 41736, 42343, 43403, 43138, 42825, 43084, 43420, 43386, 42563, 42177, 43594, 43952, 43230, 42319, 41610, 42945, 43024, 42324, 42506, 42649, 43609, 41779, 42245, 41980, 41417, 41562, 41655, 42146, 42939, 42507, 42724, 41631, 42261, 41925, 42423, 42546, 41743, 42551, 42281, 42091, 41775, 41728, 41507, 42416, 42235, 41326, 41450, 41285, 41731, 41842, 42409, 41860, 41927, 41907, 41696, 42122, 42265, 42275, 41927, 42150, 42008, 41649, 41680, 42297, 42088, 42108, 41719, 42409, 42511, 42154, 42308, 42505, 42038, 42064, 42140, 41341, 42478, 42035, 40071, 43324, 43035, 39818, 44915, 40372, 42068, 40209, 40039],
      "WindowCenter": [11017.0, 10940.0, 10900.0, 10896.0, 10901.0, 10923.0, 10918.0, 10900.0, 10887.0, 10861.0, 10863.0, 10877.0, 10884.0, 10890.0, 10878.0, 10878.0, 10884.0, 10906.0, 10913.0, 10894.0, 10901.0, 10899.0, 10895.0, 10894.0, 10907.0, 10905.0, 10898.0, 10898.0, 10919.0, 10918.0, 10948.0, 10949.0, 10951.0, 10926.0, 10891.0, 10866.0, 10886.0, 10875.0, 10865.0, 10860.0, 10875.0, 10922.0, 10900.0, 10866.0, 10878.0, 10902.0, 10889.0, 10872.0, 10841.0, 10879.0, 10868.0, 10863.0, 10877.0, 10883.0, 10908.0, 10916.0, 10908.0, 10911.0, 10907.0, 10898.0, 10888.0, 10882.0, 10868.0, 10852.0, 10832.0, 10792.0, 10806.0, 10830.0, 10881.0, 10903.0, 10913.0, 10925.0, 10917.0, 10911.0, 10904.0, 10898.0, 10899.0, 10941.0, 10937.0, 10950.0, 10958.0, 10928.0, 10894.0, 10861.0, 10841.0, 10816.0, 10806.0, 10806.0, 10810.0, 10829.0, 10865.0, 10878.0, 10921.0, 10937.0, 10934.0, 10929.0, 10921.0, 10888.0, 10843.0, 10845.0, 10899.0, 10937.0, 10926.0, 10843.0, 10850.0, 10895.0, 10913.0, 10899.0, 10900.0, 10902.0, 10752.0, 10778.0, 10467.0, 10670.0, 10762.0, 10467.0, 10874.0, 10813.0, 10816.0, 10819.0, 10827.0],
      "WindowWidth": [23706.0, 23494.0, 23385.0, 23356.0, 23363.0, 23411.0, 23399.0, 23357.0, 23324.0, 23270.0, 23270.0, 23302.0, 23322.0, 23334.0, 23304.0, 23304.0, 23312.0, 23366.0, 23383.0, 23345.0, 23361.0, 23358.0, 23345.0, 23349.0, 23369.0, 23362.0, 23348.0, 23347.0, 23393.0, 23390.0, 23458.0, 23468.0, 23469.0, 23417.0, 23338.0, 23274.0, 23310.0, 23291.0, 23268.0, 23252.0, 23284.0, 23393.0, 23351.0, 23274.0, 23291.0, 23345.0, 23318.0, 23287.0, 23221.0, 23297.0, 23278.0, 23265.0, 23298.0, 23309.0, 23362.0, 23389.0, 23370.0, 23377.0, 23372.0, 23351.0, 23326.0, 23308.0, 23276.0, 23239.0, 23194.0, 23105.0, 23130.0, 23187.0, 23301.0, 23356.0, 23383.0, 23409.0, 23389.0, 23378.0, 23363.0, 23349.0, 23354.0, 23440.0, 23437.0, 23469.0, 23489.0, 23425.0, 23345.0, 23267.0, 23217.0, 23162.0, 23137.0, 23137.0, 23149.0, 23190.0, 23283.0, 23304.0, 23405.0, 23435.0, 23431.0, 23416.0, 23391.0, 23317.0, 23213.0, 23212.0, 23347.0, 23440.0, 23410.0, 23228.0, 23232.0, 23339.0, 23381.0, 23342.0, 23342.0, 23363.0, 23016.0, 23065.0, 22360.0, 22800.0, 23016.0, 22325.0, 23263.0, 23140.0, 23141.0, 23142.0, 23161.0]
    },
    "slices": {}
  }
}