{
  "AcquisitionMatrixPE": 104,
  "AcquisitionNumber": 1,
  "AcquisitionTime": "11:33:3.895000",
  "BandwidthPerPixelPhaseEncode": 17.17,
  "BaseResolution": 104,
  "BodyPartExamined": "BRAIN",
  "CoilCombinationMethod": "Sum of Squares",
  "ConsistencyInfo": "N4_VE11C_LATEST_20160120",
  "ConversionSoftware": "dcm2niix",
  "ConversionSoftwareVersion": "v1.0.20211006",
  "DerivedVendorReportedEchoSpacing": 0.000560011,
  "DeviceSerialNumber": "167006",
  "DwellTime": 2.1e-06,
  "EchoTime": 0.037,
  "EchoTime1": 0.037,
  "EchoTime2": 0.001,
  "EchoTrainLength": 104,
  "EffectiveEchoSpacing": 0.000560011,
  "FlipAngle": 52,
  "HeudiconvVersion": "0.10.0",
  "ImageComments": "Unaliased MB4/PE3/LB",
  "ImageOrientationPatientDICOM": [0.999612, 0.0180919, 0.021193, -0.00488504, 0.86256, -0.505932],
  "ImageOrientationText": "Tra>Cor(-30.4)>Sag(1.6)",
  "ImageType": [
    "ORIGINAL",
    "PRIMARY",
    "P",
    "MB",
    "ND",
    "MOSAIC",
    "PHASE"
],
  "ImagingFrequency": 123.259,
  "InPlanePhaseEncodingDirectionDICOM": "COL",
  "InstitutionAddress": "Chemin Queen-Mary 4565,Montreal,District,CA,H3W 1W5",
  "InstitutionName": "IUGM",
  "InstitutionalDepartmentName": "Department",
  "MRAcquisitionType": "2D",
  "MagneticFieldStrength": 3,
  "Manufacturer": "Siemens",
  "ManufacturersModelName": "Prisma_fit",
  "MatrixCoilMode": "SENSE",
  "Modality": "MR",
  "MultibandAccelerationFactor": 4,
  "PartialFourier": 1,
  "PatientPosition": "HFS",
  "PercentPhaseFOV": 100,
  "PercentSampling": 100,
  "PhaseEncodingDirection": "j",
  "PhaseEncodingSteps": 104,
  "PhaseResolution": 1,
  "PixelBandwidth": 2290,
  "ProcedureStepDescription": "localizers^fLoc",
  "ProtocolName": "task_fLoc_run-1",
  "PulseSequenceDetails": "%CustomerSeq%\\cmrr_mbep2d_bold",
  "ReceiveCoilActiveElements": "HC1-7;NC1,2",
  "ReceiveCoilName": "HeadNeck_64",
  "ReconMatrixPE": 104,
  "RepetitionTime": 1.49,
  "SAR": 0.0414216,
  "ScanOptions": "FS",
  "ScanningSequence": "EP",
  "SequenceName": "epfid2d1_104",
  "SequenceVariant": "SK\\SS",
  "SeriesDescription": "task_fLoc_run-1",
  "SeriesNumber": 11,
  "ShimSetting": [613, -7200, -8872, 286, -15, -193, -17, -31],
  "SliceThickness": 2,
  "SliceTiming": [0, 0.785, 0.1, 0.8825, 0.1975, 0.98, 0.295, 1.08, 0.3925, 1.1775, 0.49, 1.275, 0.59, 1.3725, 0.6875, 0, 0.785, 0.1, 0.8825, 0.1975, 0.98, 0.295, 1.08, 0.3925, 1.1775, 0.49, 1.275, 0.59, 1.3725, 0.6875, 0, 0.785, 0.1, 0.8825, 0.1975, 0.98, 0.295, 1.08, 0.3925, 1.1775, 0.49, 1.275, 0.59, 1.3725, 0.6875, 0, 0.785, 0.1, 0.8825, 0.1975, 0.98, 0.295, 1.08, 0.3925, 1.1775, 0.49, 1.275, 0.59, 1.3725, 0.6875],
  "SoftwareVersions": "syngo MR E11",
  "SpacingBetweenSlices": 2,
  "StationName": "MRC35049",
  "TaskName": "fLoc",
  "TotalReadoutTime": 0.0576811,
  "TxRefAmp": 254.054,
  "WipMemBlock": "a78b3121-74b0-43ff-bbf5-f51017316c36||Sequence: R016 ve11c/master r/e634e98; Dec 19 2017 11:00:25 by eja",
  "dcmmeta_affine": [
    [-1.9992233514785767, -0.009770081378519535, 0.054866909980773926, 105.9170150756836],
    [-0.036183781921863556, 1.7251193523406982, -1.0112636089324951, -49.36174392700195],
    [0.04238592088222504, 1.0118635892868042, 1.7246261835098267, -96.7971420288086],
    [0.0, 0.0, 0.0, 1.0]
],
  "dcmmeta_reorient_transform": [
    [0.0, -1.0, 0.0, 103.0],
    [1.0, 0.0, 0.0, 0.0],
    [0.0, 0.0, 1.0, 0.0],
    [0.0, 0.0, 0.0, 1.0]
],
  "dcmmeta_shape": [104, 104, 60, 121],
  "dcmmeta_slice_dim": 2,
  "dcmmeta_version": 0.6,
  "global": {
    "const": {
      "AcquisitionMatrix": [104, 0, 0, 104],
      "AngioFlag": "N",
      "BitsAllocated": 16,
      "BitsStored": 16,
      "BodyPartExamined": "BRAIN",
      "Columns": 832,
      "EchoNumbers": 1,
      "EchoTime": 37.0,
      "EchoTrainLength": 104,
      "FlipAngle": 52.0,
      "HighBit": 15,
      "ImageOrientationPatient": [0.99961169557091, 0.01809189112065, 0.02119295999942, -0.0048850406371, 0.86255966637292, -0.5059317724008],
      "ImagePositionPatient": [-829.07170158929, -769.43988117401, 360.31465480856],
      "ImageType": [
        "ORIGINAL",
        "PRIMARY",
        "P",
        "MB",
        "ND",
        "MOSAIC"
],
      "ImagedNucleus": "1H",
      "ImagingFrequency": 123.258914,
      "InPlanePhaseEncodingDirection": "COL",
      "LargestImagePixelValue": 4095,
      "MRAcquisitionType": "2D",
      "MagneticFieldStrength": 3.0,
      "Manufacturer": "SIEMENS",
      "ManufacturerModelName": "Prisma_fit",
      "Modality": "MR",
      "NumberOfAverages": 1.0,
      "NumberOfPhaseEncodingSteps": 104,
      "PercentPhaseFieldOfView": 100.0,
      "PercentSampling": 100.0,
      "PerformedProcedureStepStartTime": "112931.368000",
      "PhotometricInterpretation": "MONOCHROME2",
      "PixelBandwidth": 2290.0,
      "PixelRepresentation": 0,
      "PixelSpacing": [2.0, 2.0],
      "ProtocolName": "task_fLoc_run-1",
      "RepetitionTime": 1490.0,
      "RescaleIntercept": -4096.0,
      "RescaleSlope": 2.0,
      "RescaleType": "US",
      "Rows": 832,
      "SAR": 0.0414215952727,
      "SamplesPerPixel": 1,
      "ScanOptions": "FS",
      "ScanningSequence": "EP",
      "SequenceName": "epfid2d1_104",
      "SequenceVariant": [
        "SK",
        "SS"
],
      "SeriesDescription": "task_fLoc_run-1",
      "SeriesNumber": 11,
      "SeriesTime": "113435.029000",
      "SliceLocation": -55.604911254541,
      "SliceThickness": 2.0,
      "SmallestImagePixelValue": 0,
      "SoftwareVersions": "syngo MR E11",
      "SpacingBetweenSlices": 1.9999999842732,
      "SpecificCharacterSet": "ISO_IR 100",
      "StudyID": "1",
      "StudyTime": "112931.287000",
      "TransmitCoilName": "Body",
      "VariableFlipAngleFlag": "N",
      "WindowCenterWidthExplanation": "Algo1",
      "dBdt": 0.0},
    "slices": {}
  },
  "time": {
    "samples": {
      "AcquisitionNumber": [1, 2, 3, 4, 5, 6, 7, 8, 9, 10, 11, 12, 13, 14, 15, 16, 17, 18, 19, 20, 21, 22, 23, 24, 25, 26, 27, 28, 29, 30, 31, 32, 33, 34, 35, 36, 37, 38, 39, 40, 41, 42, 43, 44, 45, 46, 47, 48, 49, 50, 51, 52, 53, 54, 55, 56, 57, 58, 59, 60, 61, 62, 63, 64, 65, 66, 67, 68, 69, 70, 71, 72, 73, 74, 75, 76, 77, 78, 79, 80, 81, 82, 83, 84, 85, 86, 87, 88, 89, 90, 91, 92, 93, 94, 95, 96, 97, 98, 99, 100, 101, 102, 103, 104, 105, 106, 107, 108, 109, 110, 111, 112, 113, 114, 115, 116, 117, 118, 119, 120, 121],
      "AcquisitionTime": ["113303.895000", "113305.385000", "113306.875000", "113308.365000", "113309.855000", "113311.345000", "113312.835000", "113314.325000", "113315.815000", "113317.305000", "113318.795000", "113320.285000", "113321.775000", "113323.265000", "113324.755000", "113326.245000", "113327.735000", "113329.225000", "113330.715000", "113332.205000", "113333.695000", "113335.185000", "113336.675000", "113338.165000", "113339.655000", "113341.145000", "113342.635000", "113344.125000", "113345.615000", "113347.105000", "113348.595000", "113350.085000", "113351.575000", "113353.065000", "113354.555000", "113356.045000", "113357.535000", "113359.025000", "113400.515000", "113402.005000", "113403.495000", "113404.985000", "113406.475000", "113407.965000", "113409.455000", "113410.945000", "113412.435000", "113413.925000", "113415.415000", "113416.905000", "113418.395000", "113419.885000", "113421.375000", "113422.865000", "113424.355000", "113425.845000", "113427.335000", "113428.825000", "113430.315000", "113431.805000", "113433.295000", "113434.785000", "113436.275000", "113437.765000", "113439.255000", "113440.745000", "113442.235000", "113443.725000", "113445.215000", "113446.705000", "113448.195000", "113449.685000", "113451.175000", "113452.665000", "113454.155000", "113455.645000", "113457.135000", "113458.625000", "113500.115000", "113501.605000", "113503.095000", "113504.585000", "113506.075000", "113507.565000", "113509.055000", "113510.545000", "113512.035000", "113513.525000", "113515.015000", "113516.505000", "113517.995000", "113519.485000", "113520.975000", "113522.465000", "113523.955000", "113525.445000", "113526.935000", "113528.425000", "113529.915000", "113531.405000", "113532.895000", "113534.385000", "113535.875000", "113537.365000", "113538.855000", "113540.345000", "113541.835000", "113543.325000", "113544.815000", "113546.305000", "113547.795000", "113549.285000", "113550.775000", "113552.265000", "113553.755000", "113555.245000", "113556.735000", "113558.225000", "113559.715000", "113601.205000", "113602.695000"],
      "ContentTime": ["113435.031000", "113435.034000", "113435.036000", "113435.039000", "113435.041000", "113435.044000", "113435.046000", "113435.049000", "113435.051000", "113435.053000", "113435.056000", "113435.058000", "113435.061000", "113435.063000", "113435.066000", "113435.068000", "113435.070000", "113435.073000", "113435.075000", "113435.078000", "113435.080000", "113435.083000", "113435.085000", "113435.088000", "113435.090000", "113435.092000", "113435.095000", "113435.097000", "113435.100000", "113435.102000", "113435.105000", "113435.107000", "113435.110000", "113435.112000", "113435.115000", "113454.927000", "113454.930000", "113454.932000", "113454.935000", "113454.937000", "113454.940000", "113454.942000", "113454.944000", "113454.947000", "113454.949000", "113454.952000", "113454.954000", "113454.956000", "113454.959000", "113454.961000", "113454.964000", "113454.966000", "113454.969000", "113454.971000", "113454.974000", "113514.926000", "113514.929000", "113514.931000", "113514.933000", "113514.936000", "113514.938000", "113514.941000", "113514.943000", "113514.946000", "113514.948000", "113514.951000", "113514.953000", "113514.956000", "113514.958000", "113514.960000", "113514.963000", "113514.965000", "113514.968000", "113514.970000", "113514.973000", "113534.925000", "113534.928000", "113534.930000", "113534.933000", "113534.935000", "113534.938000", "113534.940000", "113534.943000", "113534.945000", "113534.948000", "113534.950000", "113534.953000", "113534.955000", "113534.957000", "113534.960000", "113534.962000", "113534.965000", "113534.967000", "113534.970000", "113534.972000", "113606.227000", "113606.230000", "113606.232000", "113606.235000", "113606.237000", "113606.240000", "113606.242000", "113606.245000", "113606.247000", "113606.249000", "113606.252000", "113606.254000", "113606.258000", "113606.260000", "113606.263000", "113606.265000", "113606.268000", "113606.270000", "113606.272000", "113606.275000", "113606.277000", "113606.280000", "113606.282000", "113606.285000", "113606.287000", "113606.290000"],
      "InstanceCreationTime": ["113435.031000", "113435.034000", "113435.036000", "113435.039000", "113435.041000", "113435.044000", "113435.046000", "113435.049000", "113435.051000", "113435.053000", "113435.056000", "113435.058000", "113435.061000", "113435.063000", "113435.066000", "113435.068000", "113435.070000", "113435.073000", "113435.075000", "113435.078000", "113435.080000", "113435.083000", "113435.085000", "113435.088000", "113435.090000", "113435.092000", "113435.095000", "113435.097000", "113435.100000", "113435.102000", "113435.105000", "113435.107000", "113435.110000", "113435.112000", "113435.115000", "113454.927000", "113454.930000", "113454.932000", "113454.935000", "113454.937000", "113454.940000", "113454.942000", "113454.944000", "113454.947000", "113454.949000", "113454.952000", "113454.954000", "113454.956000", "113454.959000", "113454.961000", "113454.964000", "113454.966000", "113454.969000", "113454.971000", "113454.974000", "113514.926000", "113514.929000", "113514.931000", "113514.933000", "113514.936000", "113514.938000", "113514.941000", "113514.943000", "113514.946000", "113514.948000", "113514.951000", "113514.953000", "113514.956000", "113514.958000", "113514.960000", "113514.963000", "113514.965000", "113514.968000", "113514.970000", "113514.973000", "113534.925000", "113534.928000", "113534.930000", "113534.933000", "113534.935000", "113534.938000", "113534.940000", "113534.943000", "113534.945000", "113534.948000", "113534.950000", "113534.953000", "113534.955000", "113534.957000", "113534.960000", "113534.962000", "113534.965000", "113534.967000", "113534.970000", "113534.972000", "113606.227000", "113606.230000", "113606.232000", "113606.235000", "113606.237000", "113606.240000", "113606.242000", "113606.245000", "113606.247000", "113606.249000", "113606.252000", "113606.254000", "113606.258000", "113606.260000", "113606.263000", "113606.265000", "113606.268000", "113606.270000", "113606.272000", "113606.275000", "113606.277000", "113606.280000", "113606.282000", "113606.285000", "113606.287000", "113606.290000"],
      "InstanceNumber": [1, 2, 3, 4, 5, 6, 7, 8, 9, 10, 11, 12, 13, 14, 15, 16, 17, 18, 19, 20, 21, 22, 23, 24, 25, 26, 27, 28, 29, 30, 31, 32, 33, 34, 35, 36, 37, 38, 39, 40, 41, 42, 43, 44, 45, 46, 47, 48, 49, 50, 51, 52, 53, 54, 55, 56, 57, 58, 59, 60, 61, 62, 63, 64, 65, 66, 67, 68, 69, 70, 71, 72, 73, 74, 75, 76, 77, 78, 79, 80, 81, 82, 83, 84, 85, 86, 87, 88, 89, 90, 91, 92, 93, 94, 95, 96, 97, 98, 99, 100, 101, 102, 103, 104, 105, 106, 107, 108, 109, 110, 111, 112, 113, 114, 115, 116, 117, 118, 119, 120, 121],
      "WindowCenter": [4764.0, 4758.0, 4758.0, 4758.0, 4764.0, 4766.0, 4792.0, 4798.0, 4796.0, 4766.0, 4758.0, 4758.0, 4754.0, 4756.0, 4762.0, 4766.0, 4772.0, 4798.0, 4804.0, 4802.0, 4798.0, 4768.0, 4762.0, 4742.0, 4722.0, 4726.0, 4756.0, 4764.0, 4760.0, 4764.0, 4770.0, 4768.0, 4796.0, 4772.0, 4760.0, 4756.0, 4760.0, 4766.0, 4762.0, 4762.0, 4758.0, 4766.0, 4766.0, 4766.0, 4764.0, 4802.0, 4806.0, 4770.0, 4754.0, 4748.0, 4750.0, 4754.0, 4758.0, 4762.0, 4824.0, 4828.0, 4798.0, 4790.0, 4758.0, 4756.0, 4754.0, 4754.0, 4768.0, 4772.0, 4800.0, 4800.0, 4796.0, 4766.0, 4754.0, 4762.0, 4754.0, 4756.0, 4762.0, 4766.0, 4772.0, 4768.0, 4766.0, 4770.0, 4832.0, 4806.0, 4772.0, 4736.0, 4728.0, 4720.0, 4718.0, 4726.0, 4736.0, 4768.0, 4776.0, 4804.0, 4796.0, 4766.0, 4752.0, 4742.0, 4750.0, 4756.0, 4762.0, 4794.0, 4840.0, 4874.0, 4836.0, 4736.0, 4742.0, 4766.0, 4772.0, 4744.0, 4754.0, 4796.0, 4830.0, 4866.0, 4862.0, 4826.0, 4796.0, 4788.0, 4754.0, 4752.0, 4740.0, 4722.0, 4740.0, 4726.0, 4754.0],
      "WindowWidth": [18524.0, 18522.0, 18526.0, 18530.0, 18530.0, 18532.0, 18556.0, 18560.0, 18558.0, 18524.0, 18522.0, 18526.0, 18524.0, 18528.0, 18526.0, 18530.0, 18530.0, 18562.0, 18554.0, 18552.0, 18554.0, 18520.0, 18522.0, 18524.0, 18492.0, 18494.0, 18526.0, 18528.0, 18528.0, 18532.0, 18528.0, 18532.0, 18558.0, 18536.0, 18528.0, 18530.0, 18524.0, 18538.0, 18532.0, 18534.0, 18528.0, 18530.0, 18530.0, 18538.0, 18530.0, 18552.0, 18556.0, 18526.0, 18528.0, 18528.0, 18530.0, 18526.0, 18534.0, 18528.0, 18592.0, 18592.0, 18562.0, 18562.0, 18524.0, 18530.0, 18524.0, 18528.0, 18532.0, 18528.0, 18558.0, 18560.0, 18558.0, 18532.0, 18526.0, 18536.0, 18530.0, 18532.0, 18528.0, 18528.0, 18532.0, 18528.0, 18528.0, 18524.0, 18576.0, 18544.0, 18518.0, 18490.0, 18494.0, 18496.0, 18492.0, 18492.0, 18486.0, 18518.0, 18522.0, 18548.0, 18558.0, 18526.0, 18528.0, 18524.0, 18526.0, 18530.0, 18534.0, 18558.0, 18570.0, 18602.0, 18578.0, 18498.0, 18538.0, 18570.0, 18580.0, 18530.0, 18532.0, 18558.0, 18594.0, 18626.0, 18628.0, 18592.0, 18562.0, 18562.0, 18530.0, 18534.0, 18520.0, 18498.0, 18522.0, 18492.0, 18526.0]
    },
    "slices": {}
  }
}