{
  "AcquisitionMatrixPE": 104,
  "AcquisitionNumber": 1,
  "AcquisitionTime": "11:48:18.735000",
  "BandwidthPerPixelPhaseEncode": 17.17,
  "BaseResolution": 104,
  "BodyPartExamined": "BRAIN",
  "CoilCombinationMethod": "Sum of Squares",
  "ConsistencyInfo": "N4_VE11C_LATEST_20160120",
  "ConversionSoftware": "dcm2niix",
  "ConversionSoftwareVersion": "v1.0.20211006",
  "DerivedVendorReportedEchoSpacing": 0.000560011,
  "DeviceSerialNumber": "167006",
  "DwellTime": 2.1e-06,
  "EchoTime": 0.037,
  "EchoTrainLength": 104,
  "EffectiveEchoSpacing": 0.000560011,
  "FlipAngle": 52,
  "HeudiconvVersion": "0.10.0",
  "ImageComments": "Unaliased MB4/PE3/LB",
  "ImageOrientationPatientDICOM": [0.999612, 0.0180919, 0.021193, -0.00488504, 0.86256, -0.505932],
  "ImageOrientationText": "Tra>Cor(-30.4)>Sag(1.6)",
  "ImageType": [
    "ORIGINAL",
    "PRIMARY",
    "M",
    "MB",
    "ND",
    "MOSAIC"
],
  "ImagingFrequency": 123.259,
  "InPlanePhaseEncodingDirectionDICOM": "COL",
  "InstitutionAddress": "Chemin Queen-Mary 4565,Montreal,District,CA,H3W 1W5",
  "InstitutionName": "IUGM",
  "InstitutionalDepartmentName": "Department",
  "MRAcquisitionType": "2D",
  "MagneticFieldStrength": 3,
  "Manufacturer": "Siemens",
  "ManufacturersModelName": "Prisma_fit",
  "MatrixCoilMode": "SENSE",
  "Modality": "MR",
  "MultibandAccelerationFactor": 4,
  "PartialFourier": 1,
  "PatientPosition": "HFS",
  "PercentPhaseFOV": 100,
  "PercentSampling": 100,
  "PhaseEncodingDirection": "j",
  "PhaseEncodingSteps": 104,
  "PhaseResolution": 1,
  "PixelBandwidth": 2290,
  "ProcedureStepDescription": "localizers^fLoc",
  "ProtocolName": "task_fLoc_run-2",
  "PulseSequenceDetails": "%CustomerSeq%\\cmrr_mbep2d_bold",
  "ReceiveCoilActiveElements": "HC1-7;NC1,2",
  "ReceiveCoilName": "HeadNeck_64",
  "ReconMatrixPE": 104,
  "RepetitionTime": 1.49,
  "SAR": 0.0414216,
  "ScanOptions": "FS",
  "ScanningSequence": "EP",
  "SequenceName": "epfid2d1_104",
  "SequenceVariant": "SK\\SS",
  "SeriesDescription": "task_fLoc_run-2",
  "SeriesNumber": 19,
  "ShimSetting": [613, -7200, -8872, 286, -15, -193, -17, -31],
  "SliceThickness": 2,
  "SliceTiming": [0, 0.785, 0.0975, 0.8825, 0.1975, 0.98, 0.295, 1.0775, 0.3925, 1.1775, 0.49, 1.275, 0.5875, 1.3725, 0.6875, 0, 0.785, 0.0975, 0.8825, 0.1975, 0.98, 0.295, 1.0775, 0.3925, 1.1775, 0.49, 1.275, 0.5875, 1.3725, 0.6875, 0, 0.785, 0.0975, 0.8825, 0.1975, 0.98, 0.295, 1.0775, 0.3925, 1.1775, 0.49, 1.275, 0.5875, 1.3725, 0.6875, 0, 0.785, 0.0975, 0.8825, 0.1975, 0.98, 0.295, 1.0775, 0.3925, 1.1775, 0.49, 1.275, 0.5875, 1.3725, 0.6875],
  "SoftwareVersions": "syngo MR E11",
  "SpacingBetweenSlices": 2,
  "StationName": "MRC35049",
  "TaskName": "fLoc",
  "TotalReadoutTime": 0.0576811,
  "TxRefAmp": 254.054,
  "WipMemBlock": "9a841c67-d518-4fe1-af76-1aa089ec9f07||Sequence: R016 ve11c/master r/e634e98; Dec 19 2017 11:00:25 by eja",
  "dcmmeta_affine": [
    [-1.9992233514785767, -0.009770081378519535, 0.054866909980773926, 105.9170150756836],
    [-0.036183781921863556, 1.7251193523406982, -1.0112636089324951, -49.36174392700195],
    [0.04238592088222504, 1.0118635892868042, 1.7246261835098267, -96.7971420288086],
    [0.0, 0.0, 0.0, 1.0]
],
  "dcmmeta_reorient_transform": [
    [0.0, -1.0, 0.0, 103.0],
    [1.0, 0.0, 0.0, 0.0],
    [0.0, 0.0, 1.0, 0.0],
    [0.0, 0.0, 0.0, 1.0]
],
  "dcmmeta_shape": [104, 104, 60, 155],
  "dcmmeta_slice_dim": 2,
  "dcmmeta_version": 0.6,
  "global": {
    "const": {
      "AcquisitionMatrix": [104, 0, 0, 104],
      "AngioFlag": "N",
      "BitsAllocated": 16,
      "BitsStored": 16,
      "BodyPartExamined": "BRAIN",
      "Columns": 832,
      "EchoNumbers": 1,
      "EchoTime": 37.0,
      "EchoTrainLength": 104,
      "FlipAngle": 52.0,
      "HighBit": 15,
      "ImageOrientationPatient": [0.99961169557091, 0.01809189112065, 0.02119295999942, -0.0048850406371, 0.86255966637292, -0.5059317724008],
      "ImagePositionPatient": [-829.07170158929, -769.43988117401, 360.31465480856],
      "ImageType": [
        "ORIGINAL",
        "PRIMARY",
        "M",
        "MB",
        "ND",
        "MOSAIC"
],
      "ImagedNucleus": "1H",
      "ImagingFrequency": 123.258913,
      "InPlanePhaseEncodingDirection": "COL",
      "MRAcquisitionType": "2D",
      "MagneticFieldStrength": 3.0,
      "Manufacturer": "SIEMENS",
      "ManufacturerModelName": "Prisma_fit",
      "Modality": "MR",
      "NumberOfAverages": 1.0,
      "NumberOfPhaseEncodingSteps": 104,
      "PercentPhaseFieldOfView": 100.0,
      "PercentSampling": 100.0,
      "PerformedProcedureStepStartTime": "112931.368000",
      "PhotometricInterpretation": "MONOCHROME2",
      "PixelBandwidth": 2290.0,
      "PixelRepresentation": 0,
      "PixelSpacing": [2.0, 2.0],
      "ProtocolName": "task_fLoc_run-2",
      "RepetitionTime": 1490.0,
      "Rows": 832,
      "SAR": 0.0414215952727,
      "SamplesPerPixel": 1,
      "ScanOptions": "FS",
      "ScanningSequence": "EP",
      "SequenceName": "epfid2d1_104",
      "SequenceVariant": [
        "SK",
        "SS"
],
      "SeriesDescription": "task_fLoc_run-2",
      "SeriesNumber": 19,
      "SeriesTime": "114934.852000",
      "SliceLocation": -55.604911254541,
      "SliceThickness": 2.0,
      "SmallestImagePixelValue": 0,
      "SoftwareVersions": "syngo MR E11",
      "SpacingBetweenSlices": 1.9999999842732,
      "SpecificCharacterSet": "ISO_IR 100",
      "StudyID": "1",
      "StudyTime": "112931.287000",
      "TransmitCoilName": "Body",
      "VariableFlipAngleFlag": "N",
      "WindowCenterWidthExplanation": "Algo1",
      "dBdt": 0.0},
    "slices": {}
  },
  "time": {
    "samples": {
      "AcquisitionNumber": [1, 2, 3, 4, 5, 6, 7, 8, 9, 10, 11, 12, 13, 14, 15, 16, 17, 18, 19, 20, 21, 22, 23, 24, 25, 26, 27, 28, 29, 30, 31, 32, 33, 34, 35, 36, 37, 38, 39, 40, 41, 42, 43, 44, 45, 46, 47, 48, 49, 50, 51, 52, 53, 54, 55, 56, 57, 58, 59, 60, 61, 62, 63, 64, 65, 66, 67, 68, 69, 70, 71, 72, 73, 74, 75, 76, 77, 78, 79, 80, 81, 82, 83, 84, 85, 86, 87, 88, 89, 90, 91, 92, 93, 94, 95, 96, 97, 98, 99, 100, 101, 102, 103, 104, 105, 106, 107, 108, 109, 110, 111, 112, 113, 114, 115, 116, 117, 118, 119, 120, 121, 122, 123, 124, 125, 126, 127, 128, 129, 130, 131, 132, 133, 134, 135, 136, 137, 138, 139, 140, 141, 142, 143, 144, 145, 146, 147, 148, 149, 150, 151, 152, 153, 154, 155],
      "AcquisitionTime": ["114818.735000", "114820.225000", "114821.715000", "114823.205000", "114824.695000", "114826.185000", "114827.675000", "114829.165000", "114830.655000", "114832.145000", "114833.635000", "114835.125000", "114836.615000", "114838.105000", "114839.595000", "114841.085000", "114842.575000", "114844.065000", "114845.555000", "114847.045000", "114848.535000", "114850.025000", "114851.515000", "114853.005000", "114854.495000", "114855.985000", "114857.475000", "114858.965000", "114900.455000", "114901.945000", "114903.435000", "114904.925000", "114906.415000", "114907.905000", "114909.395000", "114910.885000", "114912.375000", "114913.865000", "114915.355000", "114916.845000", "114918.335000", "114919.825000", "114921.315000", "114922.805000", "114924.295000", "114925.785000", "114927.275000", "114928.765000", "114930.255000", "114931.745000", "114933.235000", "114934.725000", "114936.215000", "114937.705000", "114939.195000", "114940.685000", "114942.175000", "114943.665000", "114945.155000", "114946.645000", "114948.135000", "114949.625000", "114951.115000", "114952.605000", "114954.095000", "114955.585000", "114957.075000", "114958.565000", "115000.055000", "115001.545000", "115003.035000", "115004.525000", "115006.015000", "115007.505000", "115008.995000", "115010.485000", "115011.975000", "115013.465000", "115014.955000", "115016.445000", "115017.935000", "115019.425000", "115020.915000", "115022.405000", "115023.895000", "115025.385000", "115026.875000", "115028.365000", "115029.855000", "115031.345000", "115032.835000", "115034.325000", "115035.815000", "115037.305000", "115038.795000", "115040.285000", "115041.775000", "115043.265000", "115044.755000", "115046.245000", "115047.735000", "115049.225000", "115050.715000", "115052.205000", "115053.695000", "115055.185000", "115056.675000", "115058.165000", "115059.655000", "115101.145000", "115102.635000", "115104.125000", "115105.615000", "115107.105000", "115108.595000", "115110.085000", "115111.575000", "115113.065000", "115114.555000", "115116.045000", "115117.535000", "115119.025000", "115120.515000", "115122.005000", "115123.495000", "115124.985000", "115126.475000", "115127.965000", "115129.455000", "115130.945000", "115132.435000", "115133.925000", "115135.415000", "115136.905000", "115138.395000", "115139.885000", "115141.375000", "115142.865000", "115144.355000", "115145.845000", "115147.335000", "115148.825000", "115150.315000", "115151.805000", "115153.295000", "115154.785000", "115156.275000", "115157.765000", "115159.255000", "115200.745000", "115202.235000", "115203.725000", "115205.215000", "115206.705000", "115208.195000"],
      "ContentTime": ["114934.856000", "114934.860000", "114934.863000", "114934.866000", "114934.870000", "114934.873000", "114934.884000", "114934.888000", "114934.891000", "114934.894000", "114934.897000", "114934.900000", "114934.904000", "114934.907000", "114934.910000", "114934.913000", "114934.917000", "114934.920000", "114934.925000", "114934.928000", "114934.931000", "114934.935000", "114954.826000", "114954.830000", "114954.833000", "114954.836000", "114954.839000", "114954.843000", "114954.846000", "114954.849000", "114954.852000", "114954.856000", "114954.859000", "114954.862000", "114954.865000", "114954.869000", "114954.872000", "114954.875000", "114954.878000", "114954.881000", "114954.885000", "114954.888000", "115014.826000", "115014.829000", "115014.833000", "115014.836000", "115014.839000", "115014.843000", "115014.846000", "115014.849000", "115014.859000", "115014.862000", "115014.865000", "115014.869000", "115014.872000", "115014.875000", "115014.878000", "115014.882000", "115014.885000", "115014.888000", "115014.891000", "115014.895000", "115034.826000", "115034.830000", "115034.833000", "115034.836000", "115034.839000", "115034.843000", "115034.846000", "115034.849000", "115034.852000", "115034.855000", "115034.859000", "115034.862000", "115034.865000", "115034.868000", "115034.871000", "115034.875000", "115034.878000", "115034.881000", "115034.884000", "115034.888000", "115054.826000", "115054.830000", "115054.833000", "115054.836000", "115054.839000", "115054.842000", "115054.846000", "115054.849000", "115054.852000", "115054.855000", "115054.859000", "115054.862000", "115054.866000", "115054.869000", "115054.873000", "115054.877000", "115054.880000", "115054.883000", "115054.887000", "115054.890000", "115134.826000", "115134.830000", "115134.833000", "115134.836000", "115134.840000", "115134.844000", "115134.847000", "115134.850000", "115134.853000", "115134.857000", "115134.860000", "115134.881000", "115134.885000", "115134.888000", "115134.891000", "115134.895000", "115134.898000", "115134.901000", "115134.904000", "115134.908000", "115134.911000", "115134.914000", "115134.917000", "115134.921000", "115134.924000", "115134.927000", "115134.930000", "115134.934000", "115210.809000", "115210.812000", "115210.816000", "115210.819000", "115210.822000", "115210.825000", "115210.828000", "115210.832000", "115210.835000", "115210.838000", "115210.841000", "115210.845000", "115210.848000", "115210.851000", "115210.854000", "115210.858000", "115210.861000", "115210.864000", "115210.868000", "115210.871000", "115210.874000", "115210.877000", "115210.880000", "115210.884000", "115210.887000"],
      "InstanceCreationTime": ["114934.856000", "114934.860000", "114934.863000", "114934.866000", "114934.870000", "114934.873000", "114934.884000", "114934.888000", "114934.891000", "114934.894000", "114934.897000", "114934.900000", "114934.904000", "114934.907000", "114934.910000", "114934.913000", "114934.917000", "114934.920000", "114934.925000", "114934.928000", "114934.931000", "114934.935000", "114954.826000", "114954.830000", "114954.833000", "114954.836000", "114954.839000", "114954.843000", "114954.846000", "114954.849000", "114954.852000", "114954.856000", "114954.859000", "114954.862000", "114954.865000", "114954.869000", "114954.872000", "114954.875000", "114954.878000", "114954.881000", "114954.885000", "114954.888000", "115014.826000", "115014.829000", "115014.833000", "115014.836000", "115014.839000", "115014.843000", "115014.846000", "115014.849000", "115014.859000", "115014.862000", "115014.865000", "115014.869000", "115014.872000", "115014.875000", "115014.878000", "115014.882000", "115014.885000", "115014.888000", "115014.891000", "115014.895000", "115034.826000", "115034.830000", "115034.833000", "115034.836000", "115034.839000", "115034.843000", "115034.846000", "115034.849000", "115034.852000", "115034.855000", "115034.859000", "115034.862000", "115034.865000", "115034.868000", "115034.871000", "115034.875000", "115034.878000", "115034.881000", "115034.884000", "115034.888000", "115054.826000", "115054.830000", "115054.833000", "115054.836000", "115054.839000", "115054.842000", "115054.846000", "115054.849000", "115054.852000", "115054.855000", "115054.859000", "115054.862000", "115054.866000", "115054.869000", "115054.873000", "115054.877000", "115054.880000", "115054.883000", "115054.887000", "115054.890000", "115134.826000", "115134.830000", "115134.833000", "115134.836000", "115134.840000", "115134.844000", "115134.847000", "115134.850000", "115134.853000", "115134.857000", "115134.860000", "115134.881000", "115134.885000", "115134.888000", "115134.891000", "115134.895000", "115134.898000", "115134.901000", "115134.904000", "115134.908000", "115134.911000", "115134.914000", "115134.917000", "115134.921000", "115134.924000", "115134.927000", "115134.930000", "115134.934000", "115210.809000", "115210.812000", "115210.816000", "115210.819000", "115210.822000", "115210.825000", "115210.828000", "115210.832000", "115210.835000", "115210.838000", "115210.841000", "115210.845000", "115210.848000", "115210.851000", "115210.854000", "115210.858000", "115210.861000", "115210.864000", "115210.868000", "115210.871000", "115210.874000", "115210.877000", "115210.880000", "115210.884000", "115210.887000"],
      "InstanceNumber": [1, 2, 3, 4, 5, 6, 7, 8, 9, 10, 11, 12, 13, 14, 15, 16, 17, 18, 19, 20, 21, 22, 23, 24, 25, 26, 27, 28, 29, 30, 31, 32, 33, 34, 35, 36, 37, 38, 39, 40, 41, 42, 43, 44, 45, 46, 47, 48, 49, 50, 51, 52, 53, 54, 55, 56, 57, 58, 59, 60, 61, 62, 63, 64, 65, 66, 67, 68, 69, 70, 71, 72, 73, 74, 75, 76, 77, 78, 79, 80, 81, 82, 83, 84, 85, 86, 87, 88, 89, 90, 91, 92, 93, 94, 95, 96, 97, 98, 99, 100, 101, 102, 103, 104, 105, 106, 107, 108, 109, 110, 111, 112, 113, 114, 115, 116, 117, 118, 119, 120, 121, 122, 123, 124, 125, 126, 127, 128, 129, 130, 131, 132, 133, 134, 135, 136, 137, 138, 139, 140, 141, 142, 143, 144, 145, 146, 147, 148, 149, 150, 151, 152, 153, 154, 155],
      "LargestImagePixelValue": [42847, 42415, 42093, 41428, 41709, 42603, 41809, 42408, 42288, 42295, 41557, 41719, 41372, 41774, 41740, 41261, 41885, 41779, 41494, 41379, 40492, 42160, 42006, 42327, 41897, 42037, 41816, 41229, 41082, 41182, 40510, 41683, 41419, 41466, 41739, 41045, 41945, 41814, 41918, 41833, 41864, 41553, 41119, 41210, 40877, 41369, 41047, 41852, 41510, 41820, 41852, 42175, 42158, 40949, 41222, 41716, 41496, 41437, 41172, 41185, 41979, 41294, 40980, 41069, 41651, 41304, 41545, 41777, 42146, 41847, 42039, 42311, 41695, 41517, 41652, 41568, 41651, 41910, 41657, 42218, 41068, 41609, 41264, 41797, 41314, 41511, 41322, 41587, 41493, 41565, 42160, 41142, 41504, 41453, 41705, 41587, 41712, 41155, 41095, 41592, 41463, 41756, 40712, 41889, 41275, 40771, 41116, 40751, 41202, 40783, 40965, 41139, 41504, 41508, 41035, 40796, 40898, 41138, 41093, 41652, 41786, 41529, 41353, 41077, 41897, 41573, 42187, 41562, 42258, 41553, 41589, 41867, 41728, 41833, 41270, 41175, 42046, 42091, 42357, 41630, 41751, 41703, 41831, 40684, 41694, 41773, 41682, 41822, 41704, 40756, 41302, 41235, 41068, 41551, 41510],
      "WindowCenter": [10903.0, 10843.0, 10817.0, 10808.0, 10786.0, 10775.0, 10755.0, 10750.0, 10748.0, 10757.0, 10779.0, 10816.0, 10834.0, 10850.0, 10843.0, 10830.0, 10825.0, 10829.0, 10842.0, 10891.0, 10882.0, 10856.0, 10821.0, 10771.0, 10751.0, 10770.0, 10770.0, 10808.0, 10844.0, 10848.0, 10841.0, 10859.0, 10874.0, 10888.0, 10850.0, 10798.0, 10790.0, 10778.0, 10771.0, 10788.0, 10799.0, 10843.0, 10856.0, 10835.0, 10809.0, 10796.0, 10797.0, 10823.0, 10863.0, 10856.0, 10826.0, 10815.0, 10840.0, 10859.0, 10855.0, 10832.0, 10814.0, 10806.0, 10840.0, 10856.0, 10857.0, 10836.0, 10786.0, 10786.0, 10783.0, 10791.0, 10810.0, 10817.0, 10809.0, 10801.0, 10823.0, 10837.0, 10832.0, 10856.0, 10832.0, 10821.0, 10842.0, 10874.0, 10861.0, 10829.0, 10806.0, 10843.0, 10832.0, 10821.0, 10828.0, 10848.0, 10826.0, 10802.0, 10796.0, 10835.0, 10848.0, 10827.0, 10797.0, 10771.0, 10780.0, 10800.0, 10837.0, 10861.0, 10865.0, 10865.0, 10840.0, 10808.0, 10792.0, 10826.0, 10847.0, 10819.0, 10808.0, 10821.0, 10842.0, 10842.0, 10813.0, 10815.0, 10796.0, 10803.0, 10818.0, 10786.0, 10800.0, 10802.0, 10768.0, 10756.0, 10792.0, 10795.0, 10833.0, 10848.0, 10837.0, 10828.0, 10806.0, 10792.0, 10798.0, 10801.0, 10813.0, 10797.0, 10796.0, 10811.0, 10798.0, 10820.0, 10821.0, 10817.0, 10840.0, 10818.0, 10827.0, 10811.0, 10795.0, 10775.0, 10829.0, 10868.0, 10831.0, 10776.0, 10747.0, 10763.0, 10807.0, 10800.0, 10804.0, 10783.0, 10778.0],
      "WindowWidth": [23428.0, 23253.0, 23172.0, 23146.0, 23093.0, 23061.0, 23014.0, 22999.0, 22993.0, 23014.0, 23065.0, 23151.0, 23197.0, 23231.0, 23219.0, 23189.0, 23176.0, 23184.0, 23215.0, 23326.0, 23312.0, 23247.0, 23166.0, 23054.0, 23003.0, 23048.0, 23051.0, 23136.0, 23223.0, 23231.0, 23219.0, 23247.0, 23284.0, 23312.0, 23227.0, 23107.0, 23087.0, 23060.0, 23046.0, 23084.0, 23110.0, 23207.0, 23247.0, 23193.0, 23139.0, 23107.0, 23109.0, 23164.0, 23256.0, 23243.0, 23176.0, 23150.0, 23203.0, 23253.0, 23247.0, 23191.0, 23147.0, 23132.0, 23208.0, 23247.0, 23244.0, 23201.0, 23088.0, 23083.0, 23076.0, 23091.0, 23135.0, 23149.0, 23131.0, 23116.0, 23163.0, 23200.0, 23185.0, 23240.0, 23189.0, 23162.0, 23211.0, 23280.0, 23254.0, 23177.0, 23128.0, 23214.0, 23187.0, 23163.0, 23176.0, 23221.0, 23174.0, 23119.0, 23099.0, 23188.0, 23220.0, 23178.0, 23106.0, 23045.0, 23064.0, 23111.0, 23197.0, 23252.0, 23262.0, 23264.0, 23212.0, 23136.0, 23098.0, 23168.0, 23219.0, 23161.0, 23135.0, 23165.0, 23210.0, 23211.0, 23145.0, 23145.0, 23104.0, 23115.0, 23156.0, 23085.0, 23113.0, 23121.0, 23045.0, 23012.0, 23094.0, 23102.0, 23184.0, 23224.0, 23198.0, 23175.0, 23126.0, 23092.0, 23106.0, 23112.0, 23143.0, 23107.0, 23105.0, 23137.0, 23113.0, 23163.0, 23161.0, 23147.0, 23201.0, 23155.0, 23178.0, 23147.0, 23107.0, 23065.0, 23177.0, 23266.0, 23190.0, 23056.0, 22992.0, 23032.0, 23130.0, 23109.0, 23116.0, 23071.0, 23052.0]
    },
    "slices": {}
  }
}