{
  "AcquisitionMatrixPE": 104,
  "AcquisitionNumber": 1,
  "AcquisitionTime": "11:48:18.735000",
  "BandwidthPerPixelPhaseEncode": 17.17,
  "BaseResolution": 104,
  "BodyPartExamined": "BRAIN",
  "CoilCombinationMethod": "Sum of Squares",
  "ConsistencyInfo": "N4_VE11C_LATEST_20160120",
  "ConversionSoftware": "dcm2niix",
  "ConversionSoftwareVersion": "v1.0.20211006",
  "DerivedVendorReportedEchoSpacing": 0.000560011,
  "DeviceSerialNumber": "167006",
  "DwellTime": 2.1e-06,
  "EchoTime": 0.037,
  "EchoTime1": 0.037,
  "EchoTime2": 0.001,
  "EchoTrainLength": 104,
  "EffectiveEchoSpacing": 0.000560011,
  "FlipAngle": 52,
  "HeudiconvVersion": "0.10.0",
  "ImageComments": "Unaliased MB4/PE3/LB",
  "ImageOrientationPatientDICOM": [0.999612, 0.0180919, 0.021193, -0.00488504, 0.86256, -0.505932],
  "ImageOrientationText": "Tra>Cor(-30.4)>Sag(1.6)",
  "ImageType": [
    "ORIGINAL",
    "PRIMARY",
    "P",
    "MB",
    "ND",
    "MOSAIC",
    "PHASE"
],
  "ImagingFrequency": 123.259,
  "InPlanePhaseEncodingDirectionDICOM": "COL",
  "InstitutionAddress": "Chemin Queen-Mary 4565,Montreal,District,CA,H3W 1W5",
  "InstitutionName": "IUGM",
  "InstitutionalDepartmentName": "Department",
  "MRAcquisitionType": "2D",
  "MagneticFieldStrength": 3,
  "Manufacturer": "Siemens",
  "ManufacturersModelName": "Prisma_fit",
  "MatrixCoilMode": "SENSE",
  "Modality": "MR",
  "MultibandAccelerationFactor": 4,
  "PartialFourier": 1,
  "PatientPosition": "HFS",
  "PercentPhaseFOV": 100,
  "PercentSampling": 100,
  "PhaseEncodingDirection": "j",
  "PhaseEncodingSteps": 104,
  "PhaseResolution": 1,
  "PixelBandwidth": 2290,
  "ProcedureStepDescription": "localizers^fLoc",
  "ProtocolName": "task_fLoc_run-2",
  "PulseSequenceDetails": "%CustomerSeq%\\cmrr_mbep2d_bold",
  "ReceiveCoilActiveElements": "HC1-7;NC1,2",
  "ReceiveCoilName": "HeadNeck_64",
  "ReconMatrixPE": 104,
  "RepetitionTime": 1.49,
  "SAR": 0.0414216,
  "ScanOptions": "FS",
  "ScanningSequence": "EP",
  "SequenceName": "epfid2d1_104",
  "SequenceVariant": "SK\\SS",
  "SeriesDescription": "task_fLoc_run-2",
  "SeriesNumber": 20,
  "ShimSetting": [613, -7200, -8872, 286, -15, -193, -17, -31],
  "SliceThickness": 2,
  "SliceTiming": [0, 0.785, 0.0975, 0.8825, 0.1975, 0.98, 0.295, 1.0775, 0.3925, 1.1775, 0.49, 1.275, 0.5875, 1.3725, 0.6875, 0, 0.785, 0.0975, 0.8825, 0.1975, 0.98, 0.295, 1.0775, 0.3925, 1.1775, 0.49, 1.275, 0.5875, 1.3725, 0.6875, 0, 0.785, 0.0975, 0.8825, 0.1975, 0.98, 0.295, 1.0775, 0.3925, 1.1775, 0.49, 1.275, 0.5875, 1.3725, 0.6875, 0, 0.785, 0.0975, 0.8825, 0.1975, 0.98, 0.295, 1.0775, 0.3925, 1.1775, 0.49, 1.275, 0.5875, 1.3725, 0.6875],
  "SoftwareVersions": "syngo MR E11",
  "SpacingBetweenSlices": 2,
  "StationName": "MRC35049",
  "TaskName": "fLoc",
  "TotalReadoutTime": 0.0576811,
  "TxRefAmp": 254.054,
  "WipMemBlock": "9a841c67-d518-4fe1-af76-1aa089ec9f07||Sequence: R016 ve11c/master r/e634e98; Dec 19 2017 11:00:25 by eja",
  "dcmmeta_affine": [
    [-1.9992233514785767, -0.009770081378519535, 0.054866909980773926, 105.9170150756836],
    [-0.036183781921863556, 1.7251193523406982, -1.0112636089324951, -49.36174392700195],
    [0.04238592088222504, 1.0118635892868042, 1.7246261835098267, -96.7971420288086],
    [0.0, 0.0, 0.0, 1.0]
],
  "dcmmeta_reorient_transform": [
    [0.0, -1.0, 0.0, 103.0],
    [1.0, 0.0, 0.0, 0.0],
    [0.0, 0.0, 1.0, 0.0],
    [0.0, 0.0, 0.0, 1.0]
],
  "dcmmeta_shape": [104, 104, 60, 155],
  "dcmmeta_slice_dim": 2,
  "dcmmeta_version": 0.6,
  "global": {
    "const": {
      "AcquisitionMatrix": [104, 0, 0, 104],
      "AngioFlag": "N",
      "BitsAllocated": 16,
      "BitsStored": 16,
      "BodyPartExamined": "BRAIN",
      "Columns": 832,
      "EchoNumbers": 1,
      "EchoTime": 37.0,
      "EchoTrainLength": 104,
      "FlipAngle": 52.0,
      "HighBit": 15,
      "ImageOrientationPatient": [0.99961169557091, 0.01809189112065, 0.02119295999942, -0.0048850406371, 0.86255966637292, -0.5059317724008],
      "ImagePositionPatient": [-829.07170158929, -769.43988117401, 360.31465480856],
      "ImageType": [
        "ORIGINAL",
        "PRIMARY",
        "P",
        "MB",
        "ND",
        "MOSAIC"
],
      "ImagedNucleus": "1H",
      "ImagingFrequency": 123.258913,
      "InPlanePhaseEncodingDirection": "COL",
      "LargestImagePixelValue": 4095,
      "MRAcquisitionType": "2D",
      "MagneticFieldStrength": 3.0,
      "Manufacturer": "SIEMENS",
      "ManufacturerModelName": "Prisma_fit",
      "Modality": "MR",
      "NumberOfAverages": 1.0,
      "NumberOfPhaseEncodingSteps": 104,
      "PercentPhaseFieldOfView": 100.0,
      "PercentSampling": 100.0,
      "PerformedProcedureStepStartTime": "112931.368000",
      "PhotometricInterpretation": "MONOCHROME2",
      "PixelBandwidth": 2290.0,
      "PixelRepresentation": 0,
      "PixelSpacing": [2.0, 2.0],
      "ProtocolName": "task_fLoc_run-2",
      "RepetitionTime": 1490.0,
      "RescaleIntercept": -4096.0,
      "RescaleSlope": 2.0,
      "RescaleType": "US",
      "Rows": 832,
      "SAR": 0.0414215952727,
      "SamplesPerPixel": 1,
      "ScanOptions": "FS",
      "ScanningSequence": "EP",
      "SequenceName": "epfid2d1_104",
      "SequenceVariant": [
        "SK",
        "SS"
],
      "SeriesDescription": "task_fLoc_run-2",
      "SeriesNumber": 20,
      "SeriesTime": "114934.964000",
      "SliceLocation": -55.604911254541,
      "SliceThickness": 2.0,
      "SmallestImagePixelValue": 0,
      "SoftwareVersions": "syngo MR E11",
      "SpacingBetweenSlices": 1.9999999842732,
      "SpecificCharacterSet": "ISO_IR 100",
      "StudyID": "1",
      "StudyTime": "112931.287000",
      "TransmitCoilName": "Body",
      "VariableFlipAngleFlag": "N",
      "WindowCenterWidthExplanation": "Algo1",
      "dBdt": 0.0},
    "slices": {}
  },
  "time": {
    "samples": {
      "AcquisitionNumber": [1, 2, 3, 4, 5, 6, 7, 8, 9, 10, 11, 12, 13, 14, 15, 16, 17, 18, 19, 20, 21, 22, 23, 24, 25, 26, 27, 28, 29, 30, 31, 32, 33, 34, 35, 36, 37, 38, 39, 40, 41, 42, 43, 44, 45, 46, 47, 48, 49, 50, 51, 52, 53, 54, 55, 56, 57, 58, 59, 60, 61, 62, 63, 64, 65, 66, 67, 68, 69, 70, 71, 72, 73, 74, 75, 76, 77, 78, 79, 80, 81, 82, 83, 84, 85, 86, 87, 88, 89, 90, 91, 92, 93, 94, 95, 96, 97, 98, 99, 100, 101, 102, 103, 104, 105, 106, 107, 108, 109, 110, 111, 112, 113, 114, 115, 116, 117, 118, 119, 120, 121, 122, 123, 124, 125, 126, 127, 128, 129, 130, 131, 132, 133, 134, 135, 136, 137, 138, 139, 140, 141, 142, 143, 144, 145, 146, 147, 148, 149, 150, 151, 152, 153, 154, 155],
      "AcquisitionTime": ["114818.735000", "114820.225000", "114821.715000", "114823.205000", "114824.695000", "114826.185000", "114827.675000", "114829.165000", "114830.655000", "114832.145000", "114833.635000", "114835.125000", "114836.615000", "114838.105000", "114839.595000", "114841.085000", "114842.575000", "114844.065000", "114845.555000", "114847.045000", "114848.535000", "114850.025000", "114851.515000", "114853.005000", "114854.495000", "114855.985000", "114857.475000", "114858.965000", "114900.455000", "114901.945000", "114903.435000", "114904.925000", "114906.415000", "114907.905000", "114909.395000", "114910.885000", "114912.375000", "114913.865000", "114915.355000", "114916.845000", "114918.335000", "114919.825000", "114921.315000", "114922.805000", "114924.295000", "114925.785000", "114927.275000", "114928.765000", "114930.255000", "114931.745000", "114933.235000", "114934.725000", "114936.215000", "114937.705000", "114939.195000", "114940.685000", "114942.175000", "114943.665000", "114945.155000", "114946.645000", "114948.135000", "114949.625000", "114951.115000", "114952.605000", "114954.095000", "114955.585000", "114957.075000", "114958.565000", "115000.055000", "115001.545000", "115003.035000", "115004.525000", "115006.015000", "115007.505000", "115008.995000", "115010.485000", "115011.975000", "115013.465000", "115014.955000", "115016.445000", "115017.935000", "115019.425000", "115020.915000", "115022.405000", "115023.895000", "115025.385000", "115026.875000", "115028.365000", "115029.855000", "115031.345000", "115032.835000", "115034.325000", "115035.815000", "115037.305000", "115038.795000", "115040.285000", "115041.775000", "115043.265000", "115044.755000", "115046.245000", "115047.735000", "115049.225000", "115050.715000", "115052.205000", "115053.695000", "115055.185000", "115056.675000", "115058.165000", "115059.655000", "115101.145000", "115102.635000", "115104.125000", "115105.615000", "115107.105000", "115108.595000", "115110.085000", "115111.575000", "115113.065000", "115114.555000", "115116.045000", "115117.535000", "115119.025000", "115120.515000", "115122.005000", "115123.495000", "115124.985000", "115126.475000", "115127.965000", "115129.455000", "115130.945000", "115132.435000", "115133.925000", "115135.415000", "115136.905000", "115138.395000", "115139.885000", "115141.375000", "115142.865000", "115144.355000", "115145.845000", "115147.335000", "115148.825000", "115150.315000", "115151.805000", "115153.295000", "115154.785000", "115156.275000", "115157.765000", "115159.255000", "115200.745000", "115202.235000", "115203.725000", "115205.215000", "115206.705000", "115208.195000"],
      "ContentTime": ["114934.966000", "114934.969000", "114934.971000", "114934.974000", "114934.976000", "114934.978000", "114934.981000", "114934.983000", "114934.986000", "114934.988000", "114934.990000", "114934.993000", "114934.995000", "114934.998000", "114935.001000", "114935.004000", "114935.006000", "114935.008000", "114935.011000", "114935.013000", "114935.016000", "114935.018000", "114954.929000", "114954.932000", "114954.934000", "114954.937000", "114954.939000", "114954.941000", "114954.944000", "114954.946000", "114954.949000", "114954.951000", "114954.954000", "114954.956000", "114954.958000", "114954.963000", "114954.966000", "114954.968000", "114954.971000", "114954.973000", "114954.976000", "114954.978000", "115014.939000", "115014.942000", "115014.944000", "115014.947000", "115014.949000", "115014.952000", "115014.954000", "115014.956000", "115014.959000", "115014.961000", "115014.964000", "115014.966000", "115014.969000", "115014.971000", "115014.974000", "115014.976000", "115014.979000", "115014.981000", "115014.984000", "115014.986000", "115034.927000", "115034.929000", "115034.932000", "115034.934000", "115034.937000", "115034.939000", "115034.942000", "115034.944000", "115034.947000", "115034.949000", "115034.951000", "115034.954000", "115034.956000", "115034.959000", "115034.961000", "115034.963000", "115034.966000", "115034.968000", "115034.971000", "115034.973000", "115054.943000", "115054.945000", "115054.948000", "115054.950000", "115054.953000", "115054.955000", "115054.958000", "115054.960000", "115054.962000", "115054.965000", "115054.967000", "115054.970000", "115054.972000", "115054.975000", "115054.977000", "115054.979000", "115054.982000", "115054.984000", "115054.987000", "115054.989000", "115134.981000", "115134.983000", "115134.986000", "115134.988000", "115134.991000", "115134.993000", "115134.996000", "115134.998000", "115135.002000", "115135.004000", "115135.007000", "115135.009000", "115135.012000", "115135.014000", "115135.017000", "115135.019000", "115135.024000", "115135.026000", "115135.029000", "115135.031000", "115135.033000", "115135.036000", "115135.038000", "115135.041000", "115135.043000", "115135.046000", "115135.048000", "115135.050000", "115210.932000", "115210.935000", "115210.937000", "115210.940000", "115210.942000", "115210.945000", "115210.947000", "115210.950000", "115210.952000", "115210.955000", "115210.957000", "115210.959000", "115210.962000", "115210.964000", "115210.967000", "115210.969000", "115210.972000", "115210.974000", "115210.977000", "115210.979000", "115210.982000", "115210.984000", "115210.986000", "115210.989000", "115210.991000"],
      "InstanceCreationTime": ["114934.966000", "114934.969000", "114934.971000", "114934.974000", "114934.976000", "114934.978000", "114934.981000", "114934.983000", "114934.986000", "114934.988000", "114934.990000", "114934.993000", "114934.995000", "114934.998000", "114935.001000", "114935.004000", "114935.006000", "114935.008000", "114935.011000", "114935.013000", "114935.016000", "114935.018000", "114954.929000", "114954.932000", "114954.934000", "114954.937000", "114954.939000", "114954.941000", "114954.944000", "114954.946000", "114954.949000", "114954.951000", "114954.954000", "114954.956000", "114954.958000", "114954.963000", "114954.966000", "114954.968000", "114954.971000", "114954.973000", "114954.976000", "114954.978000", "115014.939000", "115014.942000", "115014.944000", "115014.947000", "115014.949000", "115014.952000", "115014.954000", "115014.956000", "115014.959000", "115014.961000", "115014.964000", "115014.966000", "115014.969000", "115014.971000", "115014.974000", "115014.976000", "115014.979000", "115014.981000", "115014.984000", "115014.986000", "115034.927000", "115034.929000", "115034.932000", "115034.934000", "115034.937000", "115034.939000", "115034.942000", "115034.944000", "115034.947000", "115034.949000", "115034.951000", "115034.954000", "115034.956000", "115034.959000", "115034.961000", "115034.963000", "115034.966000", "115034.968000", "115034.971000", "115034.973000", "115054.943000", "115054.945000", "115054.948000", "115054.950000", "115054.953000", "115054.955000", "115054.958000", "115054.960000", "115054.962000", "115054.965000", "115054.967000", "115054.970000", "115054.972000", "115054.975000", "115054.977000", "115054.979000", "115054.982000", "115054.984000", "115054.987000", "115054.989000", "115134.981000", "115134.983000", "115134.986000", "115134.988000", "115134.991000", "115134.993000", "115134.996000", "115134.998000", "115135.002000", "115135.004000", "115135.007000", "115135.009000", "115135.012000", "115135.014000", "115135.017000", "115135.019000", "115135.024000", "115135.026000", "115135.029000", "115135.031000", "115135.033000", "115135.036000", "115135.038000", "115135.041000", "115135.043000", "115135.046000", "115135.048000", "115135.050000", "115210.932000", "115210.935000", "115210.937000", "115210.940000", "115210.942000", "115210.945000", "115210.947000", "115210.950000", "115210.952000", "115210.955000", "115210.957000", "115210.959000", "115210.962000", "115210.964000", "115210.967000", "115210.969000", "115210.972000", "115210.974000", "115210.977000", "115210.979000", "115210.982000", "115210.984000", "115210.986000", "115210.989000", "115210.991000"],
      "InstanceNumber": [1, 2, 3, 4, 5, 6, 7, 8, 9, 10, 11, 12, 13, 14, 15, 16, 17, 18, 19, 20, 21, 22, 23, 24, 25, 26, 27, 28, 29, 30, 31, 32, 33, 34, 35, 36, 37, 38, 39, 40, 41, 42, 43, 44, 45, 46, 47, 48, 49, 50, 51, 52, 53, 54, 55, 56, 57, 58, 59, 60, 61, 62, 63, 64, 65, 66, 67, 68, 69, 70, 71, 72, 73, 74, 75, 76, 77, 78, 79, 80, 81, 82, 83, 84, 85, 86, 87, 88, 89, 90, 91, 92, 93, 94, 95, 96, 97, 98, 99, 100, 101, 102, 103, 104, 105, 106, 107, 108, 109, 110, 111, 112, 113, 114, 115, 116, 117, 118, 119, 120, 121, 122, 123, 124, 125, 126, 127, 128, 129, 130, 131, 132, 133, 134, 135, 136, 137, 138, 139, 140, 141, 142, 143, 144, 145, 146, 147, 148, 149, 150, 151, 152, 153, 154, 155],
      "WindowCenter": [4758.0, 4758.0, 4760.0, 4770.0, 4768.0, 4764.0, 4734.0, 4750.0, 4748.0, 4752.0, 4754.0, 4758.0, 4760.0, 4768.0, 4766.0, 4766.0, 4762.0, 4758.0, 4750.0, 4754.0, 4778.0, 4776.0, 4764.0, 4752.0, 4736.0, 4726.0, 4748.0, 4736.0, 4754.0, 4756.0, 4764.0, 4768.0, 4762.0, 4764.0, 4752.0, 4756.0, 4754.0, 4762.0, 4760.0, 4762.0, 4758.0, 4766.0, 4764.0, 4764.0, 4764.0, 4766.0, 4766.0, 4760.0, 4760.0, 4756.0, 4760.0, 4758.0, 4758.0, 4766.0, 4766.0, 4764.0, 4760.0, 4756.0, 4764.0, 4758.0, 4754.0, 4732.0, 4756.0, 4760.0, 4764.0, 4764.0, 4760.0, 4768.0, 4766.0, 4764.0, 4760.0, 4758.0, 4756.0, 4758.0, 4754.0, 4766.0, 4762.0, 4760.0, 4768.0, 4764.0, 4764.0, 4760.0, 4762.0, 4758.0, 4756.0, 4758.0, 4754.0, 4756.0, 4762.0, 4764.0, 4760.0, 4764.0, 4762.0, 4766.0, 4764.0, 4760.0, 4728.0, 4754.0, 4762.0, 4766.0, 4770.0, 4768.0, 4772.0, 4756.0, 4762.0, 4750.0, 4756.0, 4756.0, 4754.0, 4762.0, 4762.0, 4764.0, 4770.0, 4764.0, 4770.0, 4766.0, 4760.0, 4764.0, 4756.0, 4758.0, 4758.0, 4756.0, 4754.0, 4764.0, 4762.0, 4766.0, 4764.0, 4790.0, 4764.0, 4762.0, 4766.0, 4760.0, 4762.0, 4758.0, 4762.0, 4766.0, 4760.0, 4764.0, 4762.0, 4760.0, 4762.0, 4758.0, 4794.0, 4832.0, 4804.0, 4758.0, 4746.0, 4766.0, 4770.0, 4750.0, 4766.0, 4796.0, 4802.0, 4804.0, 4800.0],
      "WindowWidth": [18524.0, 18526.0, 18528.0, 18518.0, 18518.0, 18522.0, 18496.0, 18524.0, 18526.0, 18530.0, 18526.0, 18526.0, 18522.0, 18522.0, 18518.0, 18522.0, 18522.0, 18524.0, 18520.0, 18530.0, 18520.0, 18512.0, 18520.0, 18524.0, 18496.0, 18492.0, 18528.0, 18498.0, 18528.0, 18524.0, 18530.0, 18526.0, 18522.0, 18526.0, 18522.0, 18526.0, 18520.0, 18532.0, 18526.0, 18530.0, 18528.0, 18530.0, 18528.0, 18530.0, 18524.0, 18528.0, 18528.0, 18528.0, 18526.0, 18526.0, 18524.0, 18528.0, 18526.0, 18524.0, 18532.0, 18526.0, 18530.0, 18522.0, 18524.0, 18530.0, 18528.0, 18492.0, 18528.0, 18526.0, 18526.0, 18528.0, 18530.0, 18530.0, 18526.0, 18530.0, 18532.0, 18530.0, 18530.0, 18532.0, 18530.0, 18528.0, 18528.0, 18528.0, 18532.0, 18532.0, 18524.0, 18528.0, 18524.0, 18524.0, 18524.0, 18530.0, 18522.0, 18530.0, 18534.0, 18532.0, 18530.0, 18526.0, 18524.0, 18532.0, 18528.0, 18528.0, 18494.0, 18526.0, 18532.0, 18528.0, 18526.0, 18532.0, 18522.0, 18524.0, 18528.0, 18528.0, 18526.0, 18528.0, 18524.0, 18524.0, 18528.0, 18530.0, 18532.0, 18530.0, 18530.0, 18526.0, 18528.0, 18528.0, 18530.0, 18526.0, 18528.0, 18526.0, 18526.0, 18526.0, 18530.0, 18530.0, 18526.0, 18564.0, 18528.0, 18526.0, 18530.0, 18530.0, 18532.0, 18530.0, 18534.0, 18534.0, 18532.0, 18524.0, 18528.0, 18530.0, 18532.0, 18528.0, 18556.0, 18572.0, 18552.0, 18522.0, 18534.0, 18570.0, 18574.0, 18534.0, 18536.0, 18562.0, 18562.0, 18564.0, 18564.0]
    },
    "slices": {}
  }
}