{
  "AcquisitionMatrixPE": 104,
  "AcquisitionNumber": 1,
  "AcquisitionTime": "18:16:48.932500",
  "BandwidthPerPixelPhaseEncode": 17.17,
  "BaseResolution": 104,
  "BodyPartExamined": "BRAIN",
  "CoilCombinationMethod": "Sum of Squares",
  "ConsistencyInfo": "N4_VE11C_LATEST_20160120",
  "ConversionSoftware": "dcm2niix",
  "ConversionSoftwareVersion": "v1.0.20211006",
  "DerivedVendorReportedEchoSpacing": 0.000560011,
  "DeviceSerialNumber": "167006",
  "DwellTime": 2.1e-06,
  "EchoTime": 0.037,
  "EchoTrainLength": 104,
  "EffectiveEchoSpacing": 0.000560011,
  "FlipAngle": 52,
  "HeudiconvVersion": "0.10.0",
  "ImageComments": "Unaliased MB4/PE3/LB",
  "ImageOrientationPatientDICOM": [0.997008, 0.0709833, 0.0305935, -0.055916, 0.935612, -0.348575],
  "ImageOrientationText": "Tra>Cor(-20.3)>Sag(3.1)",
  "ImageType": [
    "ORIGINAL",
    "PRIMARY",
    "M",
    "MB",
    "ND",
    "MOSAIC"
],
  "ImagingFrequency": 123.259,
  "InPlanePhaseEncodingDirectionDICOM": "COL",
  "InstitutionAddress": "Chemin Queen-Mary 4565,Montreal,District,CA,H3W 1W5",
  "InstitutionName": "IUGM",
  "InstitutionalDepartmentName": "Department",
  "MRAcquisitionType": "2D",
  "MagneticFieldStrength": 3,
  "Manufacturer": "Siemens",
  "ManufacturersModelName": "Prisma_fit",
  "MatrixCoilMode": "SENSE",
  "Modality": "MR",
  "MultibandAccelerationFactor": 4,
  "PartialFourier": 1,
  "PatientPosition": "HFS",
  "PercentPhaseFOV": 100,
  "PercentSampling": 100,
  "PhaseEncodingDirection": "j",
  "PhaseEncodingSteps": 104,
  "PhaseResolution": 1,
  "PixelBandwidth": 2290,
  "ProcedureStepDescription": "localizers^fLoc",
  "ProtocolName": "task_fLoc_run-2",
  "PulseSequenceDetails": "%CustomerSeq%\\cmrr_mbep2d_bold",
  "ReceiveCoilActiveElements": "HC1-7;NC1,2",
  "ReceiveCoilName": "HeadNeck_64",
  "ReconMatrixPE": 104,
  "RepetitionTime": 1.49,
  "SAR": 0.0407773,
  "ScanOptions": "FS",
  "ScanningSequence": "EP",
  "SequenceName": "epfid2d1_104",
  "SequenceVariant": "SK\\SS",
  "SeriesDescription": "task_fLoc_run-2",
  "SeriesNumber": 16,
  "ShimSetting": [630, -7187, -8822, 622, 64, 33, -75, -13],
  "SliceThickness": 2,
  "SliceTiming": [0, 0.7825, 0.0975, 0.88, 0.195, 0.98, 0.2925, 1.0775, 0.3925, 1.175, 0.49, 1.2725, 0.5875, 1.37, 0.685, 0, 0.7825, 0.0975, 0.88, 0.195, 0.98, 0.2925, 1.0775, 0.3925, 1.175, 0.49, 1.2725, 0.5875, 1.37, 0.685, 0, 0.7825, 0.0975, 0.88, 0.195, 0.98, 0.2925, 1.0775, 0.3925, 1.175, 0.49, 1.2725, 0.5875, 1.37, 0.685, 0, 0.7825, 0.0975, 0.88, 0.195, 0.98, 0.2925, 1.0775, 0.3925, 1.175, 0.49, 1.2725, 0.5875, 1.37, 0.685],
  "SoftwareVersions": "syngo MR E11",
  "SpacingBetweenSlices": 2,
  "StationName": "MRC35049",
  "TaskName": "fLoc",
  "TotalReadoutTime": 0.0576811,
  "TxRefAmp": 254.693,
  "WipMemBlock": "1dc5610e-89d4-47b7-ab09-c147bf77f0c3||Sequence: R016 ve11c/master r/e634e98; Dec 19 2017 11:00:25 by eja",
  "dcmmeta_affine": [
    [-1.994016408920288, -0.1118319034576416, 0.10673315823078156, 109.11915588378906],
    [-0.1419665366411209, 1.8712233304977417, -0.6916419863700867, -53.11449432373047],
    [0.06118696928024292, 0.6971490383148193, 1.873563289642334, -62.093292236328125],
    [0.0, 0.0, 0.0, 1.0]
],
  "dcmmeta_reorient_transform": [
    [0.0, -1.0, 0.0, 103.0],
    [1.0, 0.0, 0.0, 0.0],
    [0.0, 0.0, 1.0, 0.0],
    [0.0, 0.0, 0.0, 1.0]
],
  "dcmmeta_shape": [104, 104, 60, 155],
  "dcmmeta_slice_dim": 2,
  "dcmmeta_version": 0.6,
  "global": {
    "const": {
      "AcquisitionMatrix": [104, 0, 0, 104],
      "AngioFlag": "N",
      "BitsAllocated": 16,
      "BitsStored": 16,
      "BodyPartExamined": "BRAIN",
      "Columns": 832,
      "EchoNumbers": 1,
      "EchoTime": 37.0,
      "EchoTrainLength": 104,
      "FlipAngle": 52.0,
      "HighBit": 15,
      "ImageOrientationPatient": [0.99700823200381, 0.0709832658078, 0.0305934844679, -0.055915950735, 0.93561167699567, -0.3485745204727],
      "ImagePositionPatient": [-782.71564783723, -872.42263084022, 241.20325402993],
      "ImageType": [
        "ORIGINAL",
        "PRIMARY",
        "M",
        "MB",
        "ND",
        "MOSAIC"
],
      "ImagedNucleus": "1H",
      "ImagingFrequency": 123.258903,
      "InPlanePhaseEncodingDirection": "COL",
      "MRAcquisitionType": "2D",
      "MagneticFieldStrength": 3.0,
      "Manufacturer": "SIEMENS",
      "ManufacturerModelName": "Prisma_fit",
      "Modality": "MR",
      "NumberOfAverages": 1.0,
      "NumberOfPhaseEncodingSteps": 104,
      "PercentPhaseFieldOfView": 100.0,
      "PercentSampling": 100.0,
      "PerformedProcedureStepStartTime": "180503.554000",
      "PhotometricInterpretation": "MONOCHROME2",
      "PixelBandwidth": 2290.0,
      "PixelRepresentation": 0,
      "PixelSpacing": [2.0, 2.0],
      "ProtocolName": "task_fLoc_run-2",
      "RepetitionTime": 1490.0,
      "Rows": 832,
      "SAR": 0.04077732205652,
      "SamplesPerPixel": 1,
      "ScanOptions": "FS",
      "ScanningSequence": "EP",
      "SequenceName": "epfid2d1_104",
      "SequenceVariant": [
        "SK",
        "SS"
],
      "SeriesDescription": "task_fLoc_run-2",
      "SeriesNumber": 16,
      "SeriesTime": "181754.562000",
      "SliceLocation": -33.976432267034,
      "SliceThickness": 2.0,
      "SmallestImagePixelValue": 0,
      "SoftwareVersions": "syngo MR E11",
      "SpacingBetweenSlices": 1.9999999968106,
      "SpecificCharacterSet": "ISO_IR 100",
      "StudyID": "1",
      "StudyTime": "180503.476000",
      "TransmitCoilName": "Body",
      "VariableFlipAngleFlag": "N",
      "WindowCenterWidthExplanation": "Algo1",
      "dBdt": 0.0},
    "slices": {}
  },
  "time": {
    "samples": {
      "AcquisitionNumber": [1, 2, 3, 4, 5, 6, 7, 8, 9, 10, 11, 12, 13, 14, 15, 16, 17, 18, 19, 20, 21, 22, 23, 24, 25, 26, 27, 28, 29, 30, 31, 32, 33, 34, 35, 36, 37, 38, 39, 40, 41, 42, 43, 44, 45, 46, 47, 48, 49, 50, 51, 52, 53, 54, 55, 56, 57, 58, 59, 60, 61, 62, 63, 64, 65, 66, 67, 68, 69, 70, 71, 72, 73, 74, 75, 76, 77, 78, 79, 80, 81, 82, 83, 84, 85, 86, 87, 88, 89, 90, 91, 92, 93, 94, 95, 96, 97, 98, 99, 100, 101, 102, 103, 104, 105, 106, 107, 108, 109, 110, 111, 112, 113, 114, 115, 116, 117, 118, 119, 120, 121, 122, 123, 124, 125, 126, 127, 128, 129, 130, 131, 132, 133, 134, 135, 136, 137, 138, 139, 140, 141, 142, 143, 144, 145, 146, 147, 148, 149, 150, 151, 152, 153, 154, 155],
      "AcquisitionTime": ["181648.932500", "181650.422500", "181651.912500", "181653.402500", "181654.892500", "181656.382500", "181657.872500", "181659.362500", "181700.852500", "181702.342500", "181703.832500", "181705.322500", "181706.812500", "181708.302500", "181709.792500", "181711.282500", "181712.772500", "181714.262500", "181715.752500", "181717.242500", "181718.732500", "181720.222500", "181721.712500", "181723.202500", "181724.692500", "181726.182500", "181727.672500", "181729.162500", "181730.652500", "181732.142500", "181733.632500", "181735.122500", "181736.612500", "181738.102500", "181739.592500", "181741.082500", "181742.572500", "181744.062500", "181745.552500", "181747.042500", "181748.532500", "181750.022500", "181751.512500", "181753.002500", "181754.492500", "181755.982500", "181757.472500", "181758.962500", "181800.452500", "181801.942500", "181803.432500", "181804.922500", "181806.412500", "181807.902500", "181809.392500", "181810.882500", "181812.372500", "181813.862500", "181815.352500", "181816.842500", "181818.332500", "181819.822500", "181821.312500", "181822.802500", "181824.292500", "181825.782500", "181827.272500", "181828.762500", "181830.252500", "181831.742500", "181833.232500", "181834.722500", "181836.212500", "181837.702500", "181839.192500", "181840.682500", "181842.172500", "181843.662500", "181845.152500", "181846.642500", "181848.132500", "181849.622500", "181851.112500", "181852.602500", "181854.092500", "181855.582500", "181857.072500", "181858.562500", "181900.052500", "181901.542500", "181903.032500", "181904.522500", "181906.012500", "181907.502500", "181908.992500", "181910.482500", "181911.972500", "181913.462500", "181914.952500", "181916.442500", "181917.932500", "181919.422500", "181920.912500", "181922.402500", "181923.892500", "181925.382500", "181926.872500", "181928.362500", "181929.852500", "181931.342500", "181932.832500", "181934.322500", "181935.812500", "181937.302500", "181938.792500", "181940.282500", "181941.772500", "181943.262500", "181944.752500", "181946.242500", "181947.732500", "181949.222500", "181950.712500", "181952.202500", "181953.692500", "181955.182500", "181956.672500", "181958.162500", "181959.652500", "182001.142500", "182002.632500", "182004.122500", "182005.612500", "182007.102500", "182008.592500", "182010.082500", "182011.572500", "182013.062500", "182014.552500", "182016.042500", "182017.532500", "182019.022500", "182020.512500", "182022.002500", "182023.492500", "182024.982500", "182026.472500", "182027.962500", "182029.452500", "182030.942500", "182032.432500", "182033.922500", "182035.412500", "182036.902500", "182038.392500"],
      "ContentTime": ["181754.565000", "181754.569000", "181754.572000", "181754.585000", "181754.588000", "181754.592000", "181754.595000", "181754.598000", "181754.602000", "181754.605000", "181754.608000", "181754.612000", "181814.531000", "181814.535000", "181814.538000", "181814.542000", "181814.545000", "181814.548000", "181814.552000", "181814.555000", "181814.558000", "181814.562000", "181814.571000", "181814.574000", "181814.578000", "181814.581000", "181814.584000", "181814.588000", "181814.591000", "181814.594000", "181814.598000", "181814.601000", "181834.531000", "181834.535000", "181834.538000", "181834.542000", "181834.545000", "181834.548000", "181834.551000", "181834.555000", "181834.558000", "181834.562000", "181834.565000", "181834.568000", "181834.571000", "181834.575000", "181834.578000", "181834.581000", "181834.585000", "181834.588000", "181834.591000", "181834.595000", "181854.530000", "181854.534000", "181854.537000", "181854.540000", "181854.544000", "181854.547000", "181854.550000", "181854.559000", "181854.562000", "181854.566000", "181854.569000", "181854.573000", "181854.576000", "181854.579000", "181854.582000", "181854.586000", "181854.590000", "181854.593000", "181854.596000", "181854.600000", "181854.603000", "181914.530000", "181914.534000", "181914.537000", "181914.541000", "181914.544000", "181914.547000", "181914.551000", "181914.554000", "181914.557000", "181914.561000", "181914.564000", "181914.568000", "181914.571000", "181914.574000", "181914.587000", "181914.591000", "181914.594000", "181914.597000", "181914.601000", "181914.604000", "181954.531000", "181954.535000", "181954.538000", "181954.542000", "181954.545000", "181954.548000", "181954.552000", "181954.555000", "181954.559000", "181954.562000", "181954.565000", "181954.569000", "181954.572000", "181954.575000", "181954.579000", "181954.582000", "181954.585000", "181954.589000", "181954.592000", "181954.595000", "181954.599000", "181954.602000", "181954.605000", "181954.609000", "181954.612000", "181954.615000", "181954.619000", "181954.622000", "181954.625000", "181954.629000", "181954.632000", "182034.531000", "182034.535000", "182034.538000", "182034.542000", "182034.545000", "182034.548000", "182034.552000", "182034.555000", "182034.558000", "182034.562000", "182034.565000", "182034.569000", "182034.572000", "182034.575000", "182034.579000", "182034.582000", "182034.585000", "182034.589000", "182034.592000", "182034.595000", "182034.599000", "182034.602000", "182034.605000", "182034.609000", "182034.612000", "182034.615000", "182034.619000", "182040.278000", "182040.282000", "182040.285000", "182040.288000"],
      "InstanceCreationTime": ["181754.565000", "181754.569000", "181754.572000", "181754.585000", "181754.588000", "181754.592000", "181754.595000", "181754.598000", "181754.602000", "181754.605000", "181754.608000", "181754.612000", "181814.531000", "181814.535000", "181814.538000", "181814.542000", "181814.545000", "181814.548000", "181814.552000", "181814.555000", "181814.558000", "181814.562000", "181814.571000", "181814.574000", "181814.578000", "181814.581000", "181814.584000", "181814.588000", "181814.591000", "181814.594000", "181814.598000", "181814.601000", "181834.531000", "181834.535000", "181834.538000", "181834.542000", "181834.545000", "181834.548000", "181834.551000", "181834.555000", "181834.558000", "181834.562000", "181834.565000", "181834.568000", "181834.571000", "181834.575000", "181834.578000", "181834.581000", "181834.585000", "181834.588000", "181834.591000", "181834.595000", "181854.530000", "181854.534000", "181854.537000", "181854.540000", "181854.544000", "181854.547000", "181854.550000", "181854.559000", "181854.562000", "181854.566000", "181854.569000", "181854.573000", "181854.576000", "181854.579000", "181854.582000", "181854.586000", "181854.590000", "181854.593000", "181854.596000", "181854.600000", "181854.603000", "181914.530000", "181914.534000", "181914.537000", "181914.541000", "181914.544000", "181914.547000", "181914.551000", "181914.554000", "181914.557000", "181914.561000", "181914.564000", "181914.568000", "181914.571000", "181914.574000", "181914.587000", "181914.591000", "181914.594000", "181914.597000", "181914.601000", "181914.604000", "181954.531000", "181954.535000", "181954.538000", "181954.542000", "181954.545000", "181954.548000", "181954.552000", "181954.555000", "181954.559000", "181954.562000", "181954.565000", "181954.569000", "181954.572000", "181954.575000", "181954.579000", "181954.582000", "181954.585000", "181954.589000", "181954.592000", "181954.595000", "181954.599000", "181954.602000", "181954.605000", "181954.609000", "181954.612000", "181954.615000", "181954.619000", "181954.622000", "181954.625000", "181954.629000", "181954.632000", "182034.531000", "182034.535000", "182034.538000", "182034.542000", "182034.545000", "182034.548000", "182034.552000", "182034.555000", "182034.558000", "182034.562000", "182034.565000", "182034.569000", "182034.572000", "182034.575000", "182034.579000", "182034.582000", "182034.585000", "182034.589000", "182034.592000", "182034.595000", "182034.599000", "182034.602000", "182034.605000", "182034.609000", "182034.612000", "182034.615000", "182034.619000", "182040.278000", "182040.282000", "182040.285000", "182040.288000"],
      "InstanceNumber": [1, 2, 3, 4, 5, 6, 7, 8, 9, 10, 11, 12, 13, 14, 15, 16, 17, 18, 19, 20, 21, 22, 23, 24, 25, 26, 27, 28, 29, 30, 31, 32, 33, 34, 35, 36, 37, 38, 39, 40, 41, 42, 43, 44, 45, 46, 47, 48, 49, 50, 51, 52, 53, 54, 55, 56, 57, 58, 59, 60, 61, 62, 63, 64, 65, 66, 67, 68, 69, 70, 71, 72, 73, 74, 75, 76, 77, 78, 79, 80, 81, 82, 83, 84, 85, 86, 87, 88, 89, 90, 91, 92, 93, 94, 95, 96, 97, 98, 99, 100, 101, 102, 103, 104, 105, 106, 107, 108, 109, 110, 111, 112, 113, 114, 115, 116, 117, 118, 119, 120, 121, 122, 123, 124, 125, 126, 127, 128, 129, 130, 131, 132, 133, 134, 135, 136, 137, 138, 139, 140, 141, 142, 143, 144, 145, 146, 147, 148, 149, 150, 151, 152, 153, 154, 155],
      "LargestImagePixelValue": [42093, 40604, 40187, 39952, 41345, 40181, 38707, 39928, 38212, 37997, 38497, 38372, 38470, 39846, 39100, 38790, 38948, 39191, 38173, 38808, 38505, 38135, 38775, 38189, 38335, 39639, 38626, 38856, 39354, 38455, 38644, 39066, 38147, 39003, 39345, 38120, 38593, 38386, 38954, 39700, 39100, 38543, 38894, 39780, 38918, 38976, 39796, 39596, 38534, 40518, 39824, 38989, 38590, 38725, 37972, 39189, 39905, 38753, 39087, 39231, 38505, 39761, 39167, 39741, 40118, 44628, 39948, 39929, 39816, 38865, 39504, 39777, 38625, 39081, 39663, 39583, 39385, 39245, 39119, 39639, 38984, 38509, 38533, 40363, 39375, 38909, 42992, 37356, 39232, 37981, 38724, 37812, 37779, 40180, 37985, 37545, 38913, 38157, 38495, 37602, 37872, 37913, 38799, 37530, 37788, 39289, 38139, 39432, 39154, 40035, 39567, 38425, 40639, 37656, 36782, 38302, 37487, 37331, 37817, 37385, 42822, 37375, 36970, 37436, 36341, 36876, 38534, 42954, 36788, 37188, 37151, 38221, 37634, 37592, 37454, 39673, 43221, 36925, 38152, 39440, 38239, 40974, 38266, 37666, 38351, 43025, 53105, 42382, 41017, 37706, 39173, 38771, 40089, 40214, 39027],
      "WindowCenter": [10392.0, 10373.0, 10385.0, 10365.0, 10346.0, 10314.0, 10295.0, 10308.0, 10270.0, 10273.0, 10289.0, 10301.0, 10319.0, 10344.0, 10319.0, 10309.0, 10315.0, 10324.0, 10321.0, 10319.0, 10301.0, 10292.0, 10297.0, 10300.0, 10325.0, 10338.0, 10324.0, 10320.0, 10320.0, 10294.0, 10315.0, 10316.0, 10310.0, 10315.0, 10327.0, 10328.0, 10334.0, 10320.0, 10320.0, 10320.0, 10308.0, 10306.0, 10314.0, 10313.0, 10297.0, 10304.0, 10308.0, 10308.0, 10309.0, 10347.0, 10327.0, 10306.0, 10288.0, 10285.0, 10282.0, 10303.0, 10324.0, 10313.0, 10322.0, 10312.0, 10300.0, 10310.0, 10304.0, 10317.0, 10323.0, 10371.0, 10336.0, 10345.0, 10349.0, 10345.0, 10344.0, 10331.0, 10303.0, 10305.0, 10308.0, 10307.0, 10310.0, 10322.0, 10333.0, 10338.0, 10316.0, 10293.0, 10290.0, 10314.0, 10319.0, 10317.0, 10352.0, 10306.0, 10311.0, 10301.0, 10297.0, 10294.0, 10305.0, 10342.0, 10320.0, 10309.0, 10324.0, 10311.0, 10325.0, 10314.0, 10296.0, 10295.0, 10296.0, 10261.0, 10301.0, 10337.0, 10353.0, 10357.0, 10341.0, 10340.0, 10326.0, 10306.0, 10310.0, 10279.0, 10279.0, 10320.0, 10338.0, 10326.0, 10321.0, 10296.0, 10339.0, 10282.0, 10283.0, 10301.0, 10302.0, 10302.0, 10309.0, 10340.0, 10262.0, 10266.0, 10275.0, 10308.0, 10318.0, 10315.0, 10313.0, 10324.0, 10346.0, 10289.0, 10316.0, 10351.0, 10338.0, 10363.0, 10316.0, 10302.0, 10297.0, 10331.0, 10376.0, 10335.0, 10328.0, 10298.0, 10323.0, 10328.0, 10333.0, 10329.0, 10297.0],
      "WindowWidth": [22047.0, 21989.0, 22012.0, 21967.0, 21906.0, 21833.0, 21800.0, 21822.0, 21745.0, 21750.0, 21787.0, 21819.0, 21860.0, 21913.0, 21861.0, 21836.0, 21848.0, 21868.0, 21866.0, 21856.0, 21815.0, 21795.0, 21803.0, 21816.0, 21874.0, 21897.0, 21865.0, 21862.0, 21851.0, 21803.0, 21850.0, 21850.0, 21844.0, 21847.0, 21871.0, 21882.0, 21895.0, 21869.0, 21855.0, 21853.0, 21830.0, 21824.0, 21845.0, 21839.0, 21804.0, 21823.0, 21829.0, 21827.0, 21841.0, 21914.0, 21866.0, 21823.0, 21782.0, 21773.0, 21774.0, 21819.0, 21864.0, 21843.0, 21867.0, 21839.0, 21819.0, 21831.0, 21818.0, 21844.0, 21857.0, 21960.0, 21889.0, 21908.0, 21919.0, 21913.0, 21912.0, 21876.0, 21818.0, 21820.0, 21823.0, 21822.0, 21831.0, 21859.0, 21884.0, 21890.0, 21845.0, 21795.0, 21786.0, 21836.0, 21846.0, 21844.0, 21915.0, 21826.0, 21829.0, 21817.0, 21803.0, 21798.0, 21826.0, 21899.0, 21860.0, 21836.0, 21862.0, 21837.0, 21868.0, 21851.0, 21800.0, 21801.0, 21796.0, 21721.0, 21817.0, 21897.0, 21931.0, 21934.0, 21899.0, 21889.0, 21863.0, 21821.0, 21825.0, 21760.0, 21768.0, 21851.0, 21901.0, 21869.0, 21858.0, 21801.0, 21880.0, 21769.0, 21772.0, 21813.0, 21823.0, 21817.0, 21829.0, 21882.0, 21725.0, 21735.0, 21756.0, 21833.0, 21854.0, 21847.0, 21842.0, 21860.0, 21893.0, 21790.0, 21844.0, 21923.0, 21900.0, 21944.0, 21841.0, 21814.0, 21798.0, 21867.0, 21951.0, 21882.0, 21865.0, 21805.0, 21854.0, 21868.0, 21878.0, 21862.0, 21796.0]
    },
    "slices": {}
  }
}