{
  "AcquisitionMatrixPE": 104,
  "AcquisitionNumber": 1,
  "AcquisitionTime": "18:16:48.932500",
  "BandwidthPerPixelPhaseEncode": 17.17,
  "BaseResolution": 104,
  "BodyPartExamined": "BRAIN",
  "CoilCombinationMethod": "Sum of Squares",
  "ConsistencyInfo": "N4_VE11C_LATEST_20160120",
  "ConversionSoftware": "dcm2niix",
  "ConversionSoftwareVersion": "v1.0.20211006",
  "DerivedVendorReportedEchoSpacing": 0.000560011,
  "DeviceSerialNumber": "167006",
  "DwellTime": 2.1e-06,
  "EchoTime": 0.037,
  "EchoTime1": 0.037,
  "EchoTime2": 0.001,
  "EchoTrainLength": 104,
  "EffectiveEchoSpacing": 0.000560011,
  "FlipAngle": 52,
  "HeudiconvVersion": "0.10.0",
  "ImageComments": "Unaliased MB4/PE3/LB",
  "ImageOrientationPatientDICOM": [0.997008, 0.0709833, 0.0305935, -0.055916, 0.935612, -0.348575],
  "ImageOrientationText": "Tra>Cor(-20.3)>Sag(3.1)",
  "ImageType": [
    "ORIGINAL",
    "PRIMARY",
    "P",
    "MB",
    "ND",
    "MOSAIC",
    "PHASE"
],
  "ImagingFrequency": 123.259,
  "InPlanePhaseEncodingDirectionDICOM": "COL",
  "InstitutionAddress": "Chemin Queen-Mary 4565,Montreal,District,CA,H3W 1W5",
  "InstitutionName": "IUGM",
  "InstitutionalDepartmentName": "Department",
  "MRAcquisitionType": "2D",
  "MagneticFieldStrength": 3,
  "Manufacturer": "Siemens",
  "ManufacturersModelName": "Prisma_fit",
  "MatrixCoilMode": "SENSE",
  "Modality": "MR",
  "MultibandAccelerationFactor": 4,
  "PartialFourier": 1,
  "PatientPosition": "HFS",
  "PercentPhaseFOV": 100,
  "PercentSampling": 100,
  "PhaseEncodingDirection": "j",
  "PhaseEncodingSteps": 104,
  "PhaseResolution": 1,
  "PixelBandwidth": 2290,
  "ProcedureStepDescription": "localizers^fLoc",
  "ProtocolName": "task_fLoc_run-2",
  "PulseSequenceDetails": "%CustomerSeq%\\cmrr_mbep2d_bold",
  "ReceiveCoilActiveElements": "HC1-7;NC1,2",
  "ReceiveCoilName": "HeadNeck_64",
  "ReconMatrixPE": 104,
  "RepetitionTime": 1.49,
  "SAR": 0.0407773,
  "ScanOptions": "FS",
  "ScanningSequence": "EP",
  "SequenceName": "epfid2d1_104",
  "SequenceVariant": "SK\\SS",
  "SeriesDescription": "task_fLoc_run-2",
  "SeriesNumber": 17,
  "ShimSetting": [630, -7187, -8822, 622, 64, 33, -75, -13],
  "SliceThickness": 2,
  "SliceTiming": [0, 0.7825, 0.0975, 0.88, 0.195, 0.98, 0.2925, 1.0775, 0.3925, 1.175, 0.49, 1.2725, 0.5875, 1.37, 0.685, 0, 0.7825, 0.0975, 0.88, 0.195, 0.98, 0.2925, 1.0775, 0.3925, 1.175, 0.49, 1.2725, 0.5875, 1.37, 0.685, 0, 0.7825, 0.0975, 0.88, 0.195, 0.98, 0.2925, 1.0775, 0.3925, 1.175, 0.49, 1.2725, 0.5875, 1.37, 0.685, 0, 0.7825, 0.0975, 0.88, 0.195, 0.98, 0.2925, 1.0775, 0.3925, 1.175, 0.49, 1.2725, 0.5875, 1.37, 0.685],
  "SoftwareVersions": "syngo MR E11",
  "SpacingBetweenSlices": 2,
  "StationName": "MRC35049",
  "TaskName": "fLoc",
  "TotalReadoutTime": 0.0576811,
  "TxRefAmp": 254.693,
  "WipMemBlock": "1dc5610e-89d4-47b7-ab09-c147bf77f0c3||Sequence: R016 ve11c/master r/e634e98; Dec 19 2017 11:00:25 by eja",
  "dcmmeta_affine": [
    [-1.994016408920288, -0.1118319034576416, 0.10673315823078156, 109.11915588378906],
    [-0.1419665366411209, 1.8712233304977417, -0.6916419863700867, -53.11449432373047],
    [0.06118696928024292, 0.6971490383148193, 1.873563289642334, -62.093292236328125],
    [0.0, 0.0, 0.0, 1.0]
],
  "dcmmeta_reorient_transform": [
    [0.0, -1.0, 0.0, 103.0],
    [1.0, 0.0, 0.0, 0.0],
    [0.0, 0.0, 1.0, 0.0],
    [0.0, 0.0, 0.0, 1.0]
],
  "dcmmeta_shape": [104, 104, 60, 155],
  "dcmmeta_slice_dim": 2,
  "dcmmeta_version": 0.6,
  "global": {
    "const": {
      "AcquisitionMatrix": [104, 0, 0, 104],
      "AngioFlag": "N",
      "BitsAllocated": 16,
      "BitsStored": 16,
      "BodyPartExamined": "BRAIN",
      "Columns": 832,
      "EchoNumbers": 1,
      "EchoTime": 37.0,
      "EchoTrainLength": 104,
      "FlipAngle": 52.0,
      "HighBit": 15,
      "ImageOrientationPatient": [0.99700823200381, 0.0709832658078, 0.0305934844679, -0.055915950735, 0.93561167699567, -0.3485745204727],
      "ImagePositionPatient": [-782.71564783723, -872.42263084022, 241.20325402993],
      "ImageType": [
        "ORIGINAL",
        "PRIMARY",
        "P",
        "MB",
        "ND",
        "MOSAIC"
],
      "ImagedNucleus": "1H",
      "ImagingFrequency": 123.258903,
      "InPlanePhaseEncodingDirection": "COL",
      "LargestImagePixelValue": 4095,
      "MRAcquisitionType": "2D",
      "MagneticFieldStrength": 3.0,
      "Manufacturer": "SIEMENS",
      "ManufacturerModelName": "Prisma_fit",
      "Modality": "MR",
      "NumberOfAverages": 1.0,
      "NumberOfPhaseEncodingSteps": 104,
      "PercentPhaseFieldOfView": 100.0,
      "PercentSampling": 100.0,
      "PerformedProcedureStepStartTime": "180503.554000",
      "PhotometricInterpretation": "MONOCHROME2",
      "PixelBandwidth": 2290.0,
      "PixelRepresentation": 0,
      "PixelSpacing": [2.0, 2.0],
      "ProtocolName": "task_fLoc_run-2",
      "RepetitionTime": 1490.0,
      "RescaleIntercept": -4096.0,
      "RescaleSlope": 2.0,
      "RescaleType": "US",
      "Rows": 832,
      "SAR": 0.04077732205652,
      "SamplesPerPixel": 1,
      "ScanOptions": "FS",
      "ScanningSequence": "EP",
      "SequenceName": "epfid2d1_104",
      "SequenceVariant": [
        "SK",
        "SS"
],
      "SeriesDescription": "task_fLoc_run-2",
      "SeriesNumber": 17,
      "SeriesTime": "181754.652000",
      "SliceLocation": -33.976432267034,
      "SliceThickness": 2.0,
      "SmallestImagePixelValue": 0,
      "SoftwareVersions": "syngo MR E11",
      "SpacingBetweenSlices": 1.9999999968106,
      "SpecificCharacterSet": "ISO_IR 100",
      "StudyID": "1",
      "StudyTime": "180503.476000",
      "TransmitCoilName": "Body",
      "VariableFlipAngleFlag": "N",
      "WindowCenterWidthExplanation": "Algo1",
      "dBdt": 0.0},
    "slices": {}
  },
  "time": {
    "samples": {
      "AcquisitionNumber": [1, 2, 3, 4, 5, 6, 7, 8, 9, 10, 11, 12, 13, 14, 15, 16, 17, 18, 19, 20, 21, 22, 23, 24, 25, 26, 27, 28, 29, 30, 31, 32, 33, 34, 35, 36, 37, 38, 39, 40, 41, 42, 43, 44, 45, 46, 47, 48, 49, 50, 51, 52, 53, 54, 55, 56, 57, 58, 59, 60, 61, 62, 63, 64, 65, 66, 67, 68, 69, 70, 71, 72, 73, 74, 75, 76, 77, 78, 79, 80, 81, 82, 83, 84, 85, 86, 87, 88, 89, 90, 91, 92, 93, 94, 95, 96, 97, 98, 99, 100, 101, 102, 103, 104, 105, 106, 107, 108, 109, 110, 111, 112, 113, 114, 115, 116, 117, 118, 119, 120, 121, 122, 123, 124, 125, 126, 127, 128, 129, 130, 131, 132, 133, 134, 135, 136, 137, 138, 139, 140, 141, 142, 143, 144, 145, 146, 147, 148, 149, 150, 151, 152, 153, 154, 155],
      "AcquisitionTime": ["181648.932500", "181650.422500", "181651.912500", "181653.402500", "181654.892500", "181656.382500", "181657.872500", "181659.362500", "181700.852500", "181702.342500", "181703.832500", "181705.322500", "181706.812500", "181708.302500", "181709.792500", "181711.282500", "181712.772500", "181714.262500", "181715.752500", "181717.242500", "181718.732500", "181720.222500", "181721.712500", "181723.202500", "181724.692500", "181726.182500", "181727.672500", "181729.162500", "181730.652500", "181732.142500", "181733.632500", "181735.122500", "181736.612500", "181738.102500", "181739.592500", "181741.082500", "181742.572500", "181744.062500", "181745.552500", "181747.042500", "181748.532500", "181750.022500", "181751.512500", "181753.002500", "181754.492500", "181755.982500", "181757.472500", "181758.962500", "181800.452500", "181801.942500", "181803.432500", "181804.922500", "181806.412500", "181807.902500", "181809.392500", "181810.882500", "181812.372500", "181813.862500", "181815.352500", "181816.842500", "181818.332500", "181819.822500", "181821.312500", "181822.802500", "181824.292500", "181825.782500", "181827.272500", "181828.762500", "181830.252500", "181831.742500", "181833.232500", "181834.722500", "181836.212500", "181837.702500", "181839.192500", "181840.682500", "181842.172500", "181843.662500", "181845.152500", "181846.642500", "181848.132500", "181849.622500", "181851.112500", "181852.602500", "181854.092500", "181855.582500", "181857.072500", "181858.562500", "181900.052500", "181901.542500", "181903.032500", "181904.522500", "181906.012500", "181907.502500", "181908.992500", "181910.482500", "181911.972500", "181913.462500", "181914.952500", "181916.442500", "181917.932500", "181919.422500", "181920.912500", "181922.402500", "181923.892500", "181925.382500", "181926.872500", "181928.362500", "181929.852500", "181931.342500", "181932.832500", "181934.322500", "181935.812500", "181937.302500", "181938.792500", "181940.282500", "181941.772500", "181943.262500", "181944.752500", "181946.242500", "181947.732500", "181949.222500", "181950.712500", "181952.202500", "181953.692500", "181955.182500", "181956.672500", "181958.162500", "181959.652500", "182001.142500", "182002.632500", "182004.122500", "182005.612500", "182007.102500", "182008.592500", "182010.082500", "182011.572500", "182013.062500", "182014.552500", "182016.042500", "182017.532500", "182019.022500", "182020.512500", "182022.002500", "182023.492500", "182024.982500", "182026.472500", "182027.962500", "182029.452500", "182030.942500", "182032.432500", "182033.922500", "182035.412500", "182036.902500", "182038.392500"],
      "ContentTime": ["181754.654000", "181754.662000", "181754.664000", "181754.667000", "181754.669000", "181754.672000", "181754.674000", "181754.677000", "181754.679000", "181754.682000", "181754.684000", "181754.691000", "181814.648000", "181814.650000", "181814.653000", "181814.656000", "181814.658000", "181814.661000", "181814.663000", "181814.666000", "181814.668000", "181814.671000", "181814.673000", "181814.676000", "181814.678000", "181814.681000", "181814.683000", "181814.686000", "181814.688000", "181814.691000", "181814.693000", "181814.696000", "181834.635000", "181834.638000", "181834.640000", "181834.643000", "181834.645000", "181834.648000", "181834.650000", "181834.653000", "181834.655000", "181834.658000", "181834.660000", "181834.663000", "181834.665000", "181834.668000", "181834.670000", "181834.679000", "181834.681000", "181834.684000", "181834.686000", "181834.689000", "181854.640000", "181854.643000", "181854.650000", "181854.652000", "181854.655000", "181854.657000", "181854.660000", "181854.662000", "181854.665000", "181854.667000", "181854.670000", "181854.672000", "181854.675000", "181854.678000", "181854.680000", "181854.683000", "181854.685000", "181854.688000", "181854.690000", "181854.693000", "181854.696000", "181914.639000", "181914.642000", "181914.644000", "181914.647000", "181914.649000", "181914.652000", "181914.654000", "181914.657000", "181914.659000", "181914.662000", "181914.664000", "181914.667000", "181914.670000", "181914.672000", "181914.675000", "181914.677000", "181914.680000", "181914.682000", "181914.685000", "181914.687000", "181954.694000", "181954.697000", "181954.699000", "181954.702000", "181954.704000", "181954.707000", "181954.709000", "181954.712000", "181954.714000", "181954.717000", "181954.720000", "181954.722000", "181954.725000", "181954.727000", "181954.730000", "181954.732000", "181954.735000", "181954.737000", "181954.740000", "181954.742000", "181954.745000", "181954.747000", "181954.750000", "181954.752000", "181954.755000", "181954.758000", "181954.760000", "181954.763000", "181954.765000", "181954.768000", "181954.770000", "182034.661000", "182034.664000", "182034.666000", "182034.669000", "182034.671000", "182034.674000", "182034.676000", "182034.679000", "182034.681000", "182034.684000", "182034.686000", "182034.689000", "182034.691000", "182034.694000", "182034.696000", "182034.699000", "182034.701000", "182034.704000", "182034.706000", "182034.709000", "182034.712000", "182034.714000", "182034.717000", "182034.719000", "182034.722000", "182034.724000", "182034.727000", "182040.318000", "182040.321000", "182040.324000", "182040.326000"],
      "InstanceCreationTime": ["181754.654000", "181754.662000", "181754.664000", "181754.667000", "181754.669000", "181754.672000", "181754.674000", "181754.677000", "181754.679000", "181754.682000", "181754.684000", "181754.691000", "181814.648000", "181814.650000", "181814.653000", "181814.656000", "181814.658000", "181814.661000", "181814.663000", "181814.666000", "181814.668000", "181814.671000", "181814.673000", "181814.676000", "181814.678000", "181814.681000", "181814.683000", "181814.686000", "181814.688000", "181814.691000", "181814.693000", "181814.696000", "181834.635000", "181834.638000", "181834.640000", "181834.643000", "181834.645000", "181834.648000", "181834.650000", "181834.653000", "181834.655000", "181834.658000", "181834.660000", "181834.663000", "181834.665000", "181834.668000", "181834.670000", "181834.679000", "181834.681000", "181834.684000", "181834.686000", "181834.689000", "181854.640000", "181854.643000", "181854.650000", "181854.652000", "181854.655000", "181854.657000", "181854.660000", "181854.662000", "181854.665000", "181854.667000", "181854.670000", "181854.672000", "181854.675000", "181854.678000", "181854.680000", "181854.683000", "181854.685000", "181854.688000", "181854.690000", "181854.693000", "181854.696000", "181914.639000", "181914.642000", "181914.644000", "181914.647000", "181914.649000", "181914.652000", "181914.654000", "181914.657000", "181914.659000", "181914.662000", "181914.664000", "181914.667000", "181914.670000", "181914.672000", "181914.675000", "181914.677000", "181914.680000", "181914.682000", "181914.685000", "181914.687000", "181954.694000", "181954.697000", "181954.699000", "181954.702000", "181954.704000", "181954.707000", "181954.709000", "181954.712000", "181954.714000", "181954.717000", "181954.720000", "181954.722000", "181954.725000", "181954.727000", "181954.730000", "181954.732000", "181954.735000", "181954.737000", "181954.740000", "181954.742000", "181954.745000", "181954.747000", "181954.750000", "181954.752000", "181954.755000", "181954.758000", "181954.760000", "181954.763000", "181954.765000", "181954.768000", "181954.770000", "182034.661000", "182034.664000", "182034.666000", "182034.669000", "182034.671000", "182034.674000", "182034.676000", "182034.679000", "182034.681000", "182034.684000", "182034.686000", "182034.689000", "182034.691000", "182034.694000", "182034.696000", "182034.699000", "182034.701000", "182034.704000", "182034.706000", "182034.709000", "182034.712000", "182034.714000", "182034.717000", "182034.719000", "182034.722000", "182034.724000", "182034.727000", "182040.318000", "182040.321000", "182040.324000", "182040.326000"],
      "InstanceNumber": [1, 2, 3, 4, 5, 6, 7, 8, 9, 10, 11, 12, 13, 14, 15, 16, 17, 18, 19, 20, 21, 22, 23, 24, 25, 26, 27, 28, 29, 30, 31, 32, 33, 34, 35, 36, 37, 38, 39, 40, 41, 42, 43, 44, 45, 46, 47, 48, 49, 50, 51, 52, 53, 54, 55, 56, 57, 58, 59, 60, 61, 62, 63, 64, 65, 66, 67, 68, 69, 70, 71, 72, 73, 74, 75, 76, 77, 78, 79, 80, 81, 82, 83, 84, 85, 86, 87, 88, 89, 90, 91, 92, 93, 94, 95, 96, 97, 98, 99, 100, 101, 102, 103, 104, 105, 106, 107, 108, 109, 110, 111, 112, 113, 114, 115, 116, 117, 118, 119, 120, 121, 122, 123, 124, 125, 126, 127, 128, 129, 130, 131, 132, 133, 134, 135, 136, 137, 138, 139, 140, 141, 142, 143, 144, 145, 146, 147, 148, 149, 150, 151, 152, 153, 154, 155],
      "WindowCenter": [4834.0, 4840.0, 4846.0, 4846.0, 4840.0, 4814.0, 4838.0, 4836.0, 4836.0, 4840.0, 4836.0, 4838.0, 4846.0, 4840.0, 4840.0, 4840.0, 4838.0, 4836.0, 4840.0, 4840.0, 4838.0, 4838.0, 4814.0, 4838.0, 4840.0, 4836.0, 4838.0, 4842.0, 4812.0, 4834.0, 4838.0, 4834.0, 4840.0, 4810.0, 4808.0, 4836.0, 4840.0, 4844.0, 4846.0, 4842.0, 4810.0, 4836.0, 4836.0, 4806.0, 4812.0, 4836.0, 4840.0, 4810.0, 4840.0, 4838.0, 4840.0, 4842.0, 4836.0, 4808.0, 4816.0, 4838.0, 4812.0, 4840.0, 4838.0, 4810.0, 4836.0, 4838.0, 4836.0, 4838.0, 4834.0, 4838.0, 4836.0, 4838.0, 4834.0, 4838.0, 4834.0, 4810.0, 4812.0, 4836.0, 4838.0, 4812.0, 4838.0, 4836.0, 4836.0, 4836.0, 4840.0, 4840.0, 4836.0, 4840.0, 4842.0, 4840.0, 4840.0, 4810.0, 4838.0, 4838.0, 4840.0, 4836.0, 4838.0, 4814.0, 4836.0, 4840.0, 4838.0, 4836.0, 4844.0, 4838.0, 4836.0, 4838.0, 4840.0, 4814.0, 4814.0, 4812.0, 4808.0, 4840.0, 4836.0, 4840.0, 4838.0, 4836.0, 4842.0, 4840.0, 4812.0, 4814.0, 4816.0, 4816.0, 4834.0, 4840.0, 4840.0, 4838.0, 4812.0, 4838.0, 4836.0, 4812.0, 4836.0, 4814.0, 4840.0, 4812.0, 4816.0, 4842.0, 4836.0, 4840.0, 4818.0, 4814.0, 4814.0, 4812.0, 4810.0, 4838.0, 4812.0, 4810.0, 4814.0, 4810.0, 4834.0, 4814.0, 4808.0, 4814.0, 4812.0, 4806.0, 4814.0, 4808.0, 4834.0, 4812.0, 4812.0],
      "WindowWidth": [18634.0, 18632.0, 18638.0, 18640.0, 18636.0, 18602.0, 18628.0, 18628.0, 18628.0, 18632.0, 18632.0, 18628.0, 18638.0, 18632.0, 18636.0, 18636.0, 18630.0, 18630.0, 18634.0, 18634.0, 18634.0, 18628.0, 18598.0, 18630.0, 18634.0, 18634.0, 18634.0, 18634.0, 18596.0, 18632.0, 18632.0, 18630.0, 18632.0, 18600.0, 18596.0, 18636.0, 18636.0, 18640.0, 18638.0, 18636.0, 18598.0, 18630.0, 18632.0, 18596.0, 18604.0, 18630.0, 18630.0, 18600.0, 18634.0, 18636.0, 18634.0, 18638.0, 18630.0, 18600.0, 18600.0, 18636.0, 18596.0, 18630.0, 18632.0, 18598.0, 18632.0, 18634.0, 18626.0, 18634.0, 18630.0, 18630.0, 18628.0, 18630.0, 18632.0, 18638.0, 18628.0, 18600.0, 18606.0, 18634.0, 18634.0, 18604.0, 18632.0, 18628.0, 18630.0, 18626.0, 18628.0, 18630.0, 18628.0, 18630.0, 18630.0, 18630.0, 18626.0, 18594.0, 18632.0, 18626.0, 18628.0, 18626.0, 18628.0, 18594.0, 18618.0, 18618.0, 18624.0, 18626.0, 18634.0, 18628.0, 18626.0, 18626.0, 18622.0, 18596.0, 18594.0, 18590.0, 18594.0, 18624.0, 18632.0, 18628.0, 18628.0, 18620.0, 18626.0, 18626.0, 18594.0, 18594.0, 18594.0, 18596.0, 18622.0, 18624.0, 18628.0, 18624.0, 18592.0, 18622.0, 18624.0, 18592.0, 18624.0, 18592.0, 18626.0, 18588.0, 18596.0, 18628.0, 18624.0, 18626.0, 18590.0, 18588.0, 18592.0, 18590.0, 18588.0, 18622.0, 18592.0, 18590.0, 18592.0, 18590.0, 18624.0, 18590.0, 18594.0, 18596.0, 18592.0, 18590.0, 18588.0, 18590.0, 18626.0, 18592.0, 18590.0]
    },
    "slices": {}
  }
}