{
  "AcquisitionMatrixPE": 104,
  "AcquisitionNumber": 1,
  "AcquisitionTime": "11:37:49.960000",
  "BandwidthPerPixelPhaseEncode": 17.17,
  "BaseResolution": 104,
  "BodyPartExamined": "BRAIN",
  "CoilCombinationMethod": "Sum of Squares",
  "ConsistencyInfo": "N4_VE11C_LATEST_20160120",
  "ConversionSoftware": "dcm2niix",
  "ConversionSoftwareVersion": "v1.0.20211006",
  "DerivedVendorReportedEchoSpacing": 0.000560011,
  "DeviceSerialNumber": "167006",
  "DwellTime": 2.1e-06,
  "EchoTime": 0.037,
  "EchoTrainLength": 104,
  "EffectiveEchoSpacing": 0.000560011,
  "FlipAngle": 52,
  "HeudiconvVersion": "0.10.0",
  "ImageComments": "Unaliased MB4/PE3/LB",
  "ImageOrientationPatientDICOM": [0.99968, 0.016773, 0.0189395, -0.00436197, 0.851691, -0.524027],
  "ImageOrientationText": "Tra>Cor(-31.6)>Sag(1.4)",
  "ImageType": [
    "ORIGINAL",
    "PRIMARY",
    "M",
    "MB",
    "ND",
    "MOSAIC"
],
  "ImagingFrequency": 123.259,
  "InPlanePhaseEncodingDirectionDICOM": "COL",
  "InstitutionAddress": "Chemin Queen-Mary 4565,Montreal,District,CA,H3W 1W5",
  "InstitutionName": "IUGM",
  "InstitutionalDepartmentName": "Department",
  "MRAcquisitionType": "2D",
  "MagneticFieldStrength": 3,
  "Manufacturer": "Siemens",
  "ManufacturersModelName": "Prisma_fit",
  "MatrixCoilMode": "SENSE",
  "Modality": "MR",
  "MultibandAccelerationFactor": 4,
  "PartialFourier": 1,
  "PatientPosition": "HFS",
  "PercentPhaseFOV": 100,
  "PercentSampling": 100,
  "PhaseEncodingDirection": "j",
  "PhaseEncodingSteps": 104,
  "PhaseResolution": 1,
  "PixelBandwidth": 2290,
  "ProcedureStepDescription": "localizers^floc",
  "ProtocolName": "func_task-flocdev_run-1",
  "PulseSequenceDetails": "%CustomerSeq%\\cmrr_mbep2d_bold",
  "ReceiveCoilActiveElements": "HC1-7;NC1,2",
  "ReceiveCoilName": "HeadNeck_64",
  "ReconMatrixPE": 104,
  "RepetitionTime": 1.49,
  "SAR": 0.0485785,
  "ScanOptions": "FS",
  "ScanningSequence": "EP",
  "SequenceName": "epfid2d1_104",
  "SequenceVariant": "SK\\SS",
  "SeriesDescription": "task-fLoc_run-1",
  "SeriesNumber": 10,
  "ShimSetting": [620, -7184, -8868, 265, 18, -140, 0, -15],
  "SliceThickness": 2,
  "SliceTiming": [0, 0.785, 0.0975, 0.8825, 0.1975, 0.98, 0.295, 1.0775, 0.3925, 1.1775, 0.49, 1.275, 0.5875, 1.3725, 0.6875, 0, 0.785, 0.0975, 0.8825, 0.1975, 0.98, 0.295, 1.0775, 0.3925, 1.1775, 0.49, 1.275, 0.5875, 1.3725, 0.6875, 0, 0.785, 0.0975, 0.8825, 0.1975, 0.98, 0.295, 1.0775, 0.3925, 1.1775, 0.49, 1.275, 0.5875, 1.3725, 0.6875, 0, 0.785, 0.0975, 0.8825, 0.1975, 0.98, 0.295, 1.0775, 0.3925, 1.1775, 0.49, 1.275, 0.5875, 1.3725, 0.6875],
  "SoftwareVersions": "syngo MR E11",
  "SpacingBetweenSlices": 2,
  "StationName": "MRC35049",
  "TaskName": "flocdev",
  "TotalReadoutTime": 0.0576811,
  "TxRefAmp": 271.806,
  "WipMemBlock": "da763a31-490d-4cda-acb2-5cfd6880fec7||Sequence: R016 ve11c/master r/e634e98; Dec 19 2017 11:00:25 by eja",
  "dcmmeta_affine": [
    [-1.9993598461151123, -0.008723948150873184, 0.049840252846479416, 105.55951690673828],
    [-0.03354598954319954, 1.7033812999725342, -1.0475527048110962, -48.22917556762695],
    [0.03787907958030701, 1.048053503036499, 1.7029824256896973, -94.9100341796875],
    [0.0, 0.0, 0.0, 1.0]
],
  "dcmmeta_reorient_transform": [
    [0.0, -1.0, 0.0, 103.0],
    [1.0, 0.0, 0.0, 0.0],
    [0.0, 0.0, 1.0, 0.0],
    [0.0, 0.0, 0.0, 1.0]
],
  "dcmmeta_shape": [104, 104, 60, 155],
  "dcmmeta_slice_dim": 2,
  "dcmmeta_version": 0.6,
  "global": {
    "const": {
      "AcquisitionMatrix": [104, 0, 0, 104],
      "AngioFlag": "N",
      "BitsAllocated": 16,
      "BitsStored": 16,
      "BodyPartExamined": "BRAIN",
      "Columns": 832,
      "EchoNumbers": 1,
      "EchoTime": 37.0,
      "EchoTrainLength": 104,
      "FlipAngle": 52.0,
      "HighBit": 15,
      "ImageOrientationPatient": [0.99967992901852, 0.01677299464734, 0.01893953980641, -0.0043619738472, 0.85169065073394, -0.5240267251167],
      "ImagePositionPatient": [-829.25241842225, -759.46063296211, 380.74294085763],
      "ImageType": [
        "ORIGINAL",
        "PRIMARY",
        "M",
        "MB",
        "ND",
        "MOSAIC"
],
      "ImagedNucleus": "1H",
      "ImagingFrequency": 123.258904,
      "InPlanePhaseEncodingDirection": "COL",
      "MRAcquisitionType": "2D",
      "MagneticFieldStrength": 3.0,
      "Manufacturer": "SIEMENS",
      "ManufacturerModelName": "Prisma_fit",
      "Modality": "MR",
      "NumberOfAverages": 1.0,
      "NumberOfPhaseEncodingSteps": 104,
      "PercentPhaseFieldOfView": 100.0,
      "PercentSampling": 100.0,
      "PerformedProcedureStepStartTime": "113301.461000",
      "PhotometricInterpretation": "MONOCHROME2",
      "PixelBandwidth": 2290.0,
      "PixelRepresentation": 0,
      "PixelSpacing": [2.0, 2.0],
      "ProtocolName": "func_task-flocdev_run-1",
      "RepetitionTime": 1490.0,
      "Rows": 832,
      "SAR": 0.04857848645536,
      "SamplesPerPixel": 1,
      "ScanOptions": "FS",
      "ScanningSequence": "EP",
      "SequenceName": "epfid2d1_104",
      "SequenceVariant": [
        "SK",
        "SS"
],
      "SeriesDescription": "task-fLoc_run-1",
      "SeriesNumber": 10,
      "SeriesTime": "113853.537000",
      "SliceLocation": -52.923201802535,
      "SliceThickness": 2.0,
      "SmallestImagePixelValue": 0,
      "SoftwareVersions": "syngo MR E11",
      "SpacingBetweenSlices": 1.9999999602418,
      "SpecificCharacterSet": "ISO_IR 100",
      "StudyID": "1",
      "StudyTime": "113301.392000",
      "TransmitCoilName": "Body",
      "VariableFlipAngleFlag": "N",
      "WindowCenterWidthExplanation": "Algo1",
      "dBdt": 0.0},
    "slices": {}
  },
  "time": {
    "samples": {
      "AcquisitionNumber": [1, 2, 3, 4, 5, 6, 7, 8, 9, 10, 11, 12, 13, 14, 15, 16, 17, 18, 19, 20, 21, 22, 23, 24, 25, 26, 27, 28, 29, 30, 31, 32, 33, 34, 35, 36, 37, 38, 39, 40, 41, 42, 43, 44, 45, 46, 47, 48, 49, 50, 51, 52, 53, 54, 55, 56, 57, 58, 59, 60, 61, 62, 63, 64, 65, 66, 67, 68, 69, 70, 71, 72, 73, 74, 75, 76, 77, 78, 79, 80, 81, 82, 83, 84, 85, 86, 87, 88, 89, 90, 91, 92, 93, 94, 95, 96, 97, 98, 99, 100, 101, 102, 103, 104, 105, 106, 107, 108, 109, 110, 111, 112, 113, 114, 115, 116, 117, 118, 119, 120, 121, 122, 123, 124, 125, 126, 127, 128, 129, 130, 131, 132, 133, 134, 135, 136, 137, 138, 139, 140, 141, 142, 143, 144, 145, 146, 147, 148, 149, 150, 151, 152, 153, 154, 155],
      "AcquisitionTime": ["113749.960000", "113751.450000", "113752.940000", "113754.430000", "113755.920000", "113757.410000", "113758.900000", "113800.390000", "113801.880000", "113803.370000", "113804.860000", "113806.350000", "113807.840000", "113809.330000", "113810.820000", "113812.310000", "113813.800000", "113815.290000", "113816.780000", "113818.270000", "113819.760000", "113821.250000", "113822.740000", "113824.230000", "113825.720000", "113827.210000", "113828.700000", "113830.190000", "113831.680000", "113833.170000", "113834.660000", "113836.150000", "113837.640000", "113839.130000", "113840.620000", "113842.110000", "113843.600000", "113845.090000", "113846.580000", "113848.070000", "113849.560000", "113851.050000", "113852.540000", "113854.030000", "113855.520000", "113857.010000", "113858.500000", "113859.990000", "113901.480000", "113902.970000", "113904.460000", "113905.950000", "113907.440000", "113908.930000", "113910.420000", "113911.910000", "113913.400000", "113914.890000", "113916.380000", "113917.870000", "113919.360000", "113920.850000", "113922.340000", "113923.830000", "113925.320000", "113926.810000", "113928.300000", "113929.790000", "113931.280000", "113932.770000", "113934.260000", "113935.750000", "113937.240000", "113938.730000", "113940.220000", "113941.710000", "113943.200000", "113944.690000", "113946.180000", "113947.670000", "113949.160000", "113950.650000", "113952.140000", "113953.630000", "113955.120000", "113956.610000", "113958.100000", "113959.590000", "114001.080000", "114002.570000", "114004.060000", "114005.550000", "114007.040000", "114008.530000", "114010.020000", "114011.510000", "114013.000000", "114014.490000", "114015.980000", "114017.470000", "114018.960000", "114020.450000", "114021.940000", "114023.430000", "114024.920000", "114026.410000", "114027.900000", "114029.390000", "114030.880000", "114032.370000", "114033.860000", "114035.350000", "114036.840000", "114038.330000", "114039.820000", "114041.310000", "114042.800000", "114044.290000", "114045.780000", "114047.270000", "114048.760000", "114050.250000", "114051.740000", "114053.230000", "114054.720000", "114056.210000", "114057.700000", "114059.190000", "114100.680000", "114102.170000", "114103.660000", "114105.150000", "114106.640000", "114108.130000", "114109.620000", "114111.110000", "114112.600000", "114114.090000", "114115.580000", "114117.070000", "114118.560000", "114120.050000", "114121.540000", "114123.030000", "114124.520000", "114126.010000", "114127.500000", "114128.990000", "114130.480000", "114131.970000", "114133.460000", "114134.950000", "114136.440000", "114137.930000", "114139.420000"],
      "ContentTime": ["113853.541000", "113853.545000", "113853.548000", "113853.552000", "113853.556000", "113853.560000", "113853.563000", "113853.567000", "113853.570000", "113913.500000", "113913.504000", "113913.507000", "113913.510000", "113913.514000", "113913.517000", "113913.521000", "113913.524000", "113913.528000", "113913.531000", "113913.535000", "113913.538000", "113913.541000", "113913.544000", "113913.548000", "113913.551000", "113913.554000", "113913.558000", "113913.561000", "113913.568000", "113913.571000", "113933.500000", "113933.504000", "113933.507000", "113933.510000", "113933.514000", "113933.517000", "113933.520000", "113933.523000", "113933.527000", "113933.530000", "113933.533000", "113933.537000", "113933.544000", "113933.549000", "113933.552000", "113933.555000", "113933.559000", "113933.562000", "113933.566000", "113933.569000", "113953.501000", "113953.505000", "113953.508000", "113953.512000", "113953.515000", "113953.518000", "113953.522000", "113953.525000", "113953.528000", "113953.532000", "113953.535000", "113953.538000", "113953.542000", "113953.545000", "113953.548000", "113953.551000", "113953.555000", "113953.558000", "113953.561000", "113953.565000", "114013.501000", "114013.505000", "114013.508000", "114013.511000", "114013.515000", "114013.518000", "114013.521000", "114013.525000", "114013.528000", "114013.531000", "114013.535000", "114013.538000", "114013.541000", "114013.544000", "114013.548000", "114013.551000", "114013.554000", "114013.558000", "114013.561000", "114013.564000", "114053.501000", "114053.505000", "114053.508000", "114053.511000", "114053.515000", "114053.518000", "114053.521000", "114053.525000", "114053.528000", "114053.531000", "114053.535000", "114053.538000", "114053.542000", "114053.546000", "114053.549000", "114053.553000", "114053.556000", "114053.559000", "114053.563000", "114053.566000", "114053.569000", "114053.573000", "114053.576000", "114053.580000", "114053.583000", "114053.587000", "114053.591000", "114053.594000", "114053.598000", "114053.601000", "114053.604000", "114053.608000", "114133.500000", "114133.504000", "114133.507000", "114133.511000", "114133.514000", "114133.517000", "114133.521000", "114133.524000", "114133.527000", "114133.530000", "114133.534000", "114133.537000", "114133.541000", "114133.544000", "114133.548000", "114133.551000", "114133.555000", "114133.558000", "114133.562000", "114133.565000", "114133.569000", "114133.572000", "114133.575000", "114133.579000", "114133.582000", "114133.585000", "114133.589000", "114141.422000", "114141.426000", "114141.430000", "114141.433000", "114141.436000", "114141.440000"],
      "InstanceCreationTime": ["113853.541000", "113853.545000", "113853.548000", "113853.552000", "113853.556000", "113853.560000", "113853.563000", "113853.567000", "113853.570000", "113913.500000", "113913.504000", "113913.507000", "113913.510000", "113913.514000", "113913.517000", "113913.521000", "113913.524000", "113913.528000", "113913.531000", "113913.535000", "113913.538000", "113913.541000", "113913.544000", "113913.548000", "113913.551000", "113913.554000", "113913.558000", "113913.561000", "113913.568000", "113913.571000", "113933.500000", "113933.504000", "113933.507000", "113933.510000", "113933.514000", "113933.517000", "113933.520000", "113933.523000", "113933.527000", "113933.530000", "113933.533000", "113933.537000", "113933.544000", "113933.549000", "113933.552000", "113933.555000", "113933.559000", "113933.562000", "113933.566000", "113933.569000", "113953.501000", "113953.505000", "113953.508000", "113953.512000", "113953.515000", "113953.518000", "113953.522000", "113953.525000", "113953.528000", "113953.532000", "113953.535000", "113953.538000", "113953.542000", "113953.545000", "113953.548000", "113953.551000", "113953.555000", "113953.558000", "113953.561000", "113953.565000", "114013.501000", "114013.505000", "114013.508000", "114013.511000", "114013.515000", "114013.518000", "114013.521000", "114013.525000", "114013.528000", "114013.531000", "114013.535000", "114013.538000", "114013.541000", "114013.544000", "114013.548000", "114013.551000", "114013.554000", "114013.558000", "114013.561000", "114013.564000", "114053.501000", "114053.505000", "114053.508000", "114053.511000", "114053.515000", "114053.518000", "114053.521000", "114053.525000", "114053.528000", "114053.531000", "114053.535000", "114053.538000", "114053.542000", "114053.546000", "114053.549000", "114053.553000", "114053.556000", "114053.559000", "114053.563000", "114053.566000", "114053.569000", "114053.573000", "114053.576000", "114053.580000", "114053.583000", "114053.587000", "114053.591000", "114053.594000", "114053.598000", "114053.601000", "114053.604000", "114053.608000", "114133.500000", "114133.504000", "114133.507000", "114133.511000", "114133.514000", "114133.517000", "114133.521000", "114133.524000", "114133.527000", "114133.530000", "114133.534000", "114133.537000", "114133.541000", "114133.544000", "114133.548000", "114133.551000", "114133.555000", "114133.558000", "114133.562000", "114133.565000", "114133.569000", "114133.572000", "114133.575000", "114133.579000", "114133.582000", "114133.585000", "114133.589000", "114141.422000", "114141.426000", "114141.430000", "114141.433000", "114141.436000", "114141.440000"],
      "InstanceNumber": [1, 2, 3, 4, 5, 6, 7, 8, 9, 10, 11, 12, 13, 14, 15, 16, 17, 18, 19, 20, 21, 22, 23, 24, 25, 26, 27, 28, 29, 30, 31, 32, 33, 34, 35, 36, 37, 38, 39, 40, 41, 42, 43, 44, 45, 46, 47, 48, 49, 50, 51, 52, 53, 54, 55, 56, 57, 58, 59, 60, 61, 62, 63, 64, 65, 66, 67, 68, 69, 70, 71, 72, 73, 74, 75, 76, 77, 78, 79, 80, 81, 82, 83, 84, 85, 86, 87, 88, 89, 90, 91, 92, 93, 94, 95, 96, 97, 98, 99, 100, 101, 102, 103, 104, 105, 106, 107, 108, 109, 110, 111, 112, 113, 114, 115, 116, 117, 118, 119, 120, 121, 122, 123, 124, 125, 126, 127, 128, 129, 130, 131, 132, 133, 134, 135, 136, 137, 138, 139, 140, 141, 142, 143, 144, 145, 146, 147, 148, 149, 150, 151, 152, 153, 154, 155],
      "LargestImagePixelValue": [49887, 48485, 46731, 46111, 46603, 46602, 46530, 46511, 46131, 46809, 48386, 47243, 46067, 47636, 47094, 47866, 46231, 48415, 46689, 47444, 47248, 47535, 47849, 47155, 46995, 47763, 47684, 47744, 47753, 48182, 47964, 48677, 48094, 47744, 47716, 47770, 47333, 48457, 48943, 47084, 45968, 47071, 47130, 47274, 47851, 47515, 48539, 48060, 47625, 47422, 47599, 47665, 47690, 47380, 47923, 48431, 46976, 48272, 47848, 47961, 47590, 47556, 47678, 48081, 47830, 47985, 48197, 47587, 47731, 48035, 47777, 47995, 47389, 47677, 47413, 47481, 47390, 47548, 47917, 47722, 47530, 47710, 47177, 47145, 47325, 47547, 47804, 48662, 46999, 46404, 47188, 47245, 46962, 47651, 46851, 47204, 47409, 47704, 47071, 46788, 47166, 46651, 47475, 47154, 46866, 46765, 46815, 47449, 47689, 47153, 47057, 47612, 47971, 47635, 47265, 47213, 48383, 47423, 48017, 47812, 47667, 47707, 47701, 47623, 47115, 47618, 47339, 48364, 47103, 47883, 48381, 47482, 47817, 47695, 47962, 47442, 47593, 47092, 47940, 47131, 48180, 47647, 47808, 47856, 47356, 47901, 47658, 47197, 47276, 47228, 48908, 46926, 48275, 47500, 47056],
      "WindowCenter": [11123.0, 11110.0, 11095.0, 11039.0, 11021.0, 11001.0, 11010.0, 11039.0, 11036.0, 11029.0, 11052.0, 11079.0, 11068.0, 11052.0, 11057.0, 11092.0, 11051.0, 11070.0, 11045.0, 11082.0, 11107.0, 11105.0, 11105.0, 11077.0, 11088.0, 11081.0, 11070.0, 11076.0, 11053.0, 11055.0, 11082.0, 11082.0, 11045.0, 11037.0, 11055.0, 11065.0, 11041.0, 11082.0, 11083.0, 11091.0, 11087.0, 11084.0, 11086.0, 11091.0, 11081.0, 11058.0, 11048.0, 11025.0, 11014.0, 11015.0, 11024.0, 11042.0, 11053.0, 11065.0, 11072.0, 11078.0, 11063.0, 11060.0, 11064.0, 11088.0, 11092.0, 11084.0, 11067.0, 11049.0, 11045.0, 11036.0, 11042.0, 11039.0, 11047.0, 11056.0, 11059.0, 11070.0, 11069.0, 11076.0, 11079.0, 11089.0, 11089.0, 11088.0, 11077.0, 11064.0, 11091.0, 11113.0, 11093.0, 11054.0, 11074.0, 11081.0, 11087.0, 11100.0, 11105.0, 11110.0, 11118.0, 11118.0, 11105.0, 11102.0, 11055.0, 11030.0, 11045.0, 11081.0, 11059.0, 11051.0, 11069.0, 11044.0, 11053.0, 11085.0, 11069.0, 11083.0, 11073.0, 11073.0, 11100.0, 11095.0, 11125.0, 11149.0, 11122.0, 11134.0, 11112.0, 11092.0, 11103.0, 11066.0, 11101.0, 11074.0, 11068.0, 11065.0, 11064.0, 11108.0, 11097.0, 11102.0, 11095.0, 11112.0, 11081.0, 11089.0, 11093.0, 11085.0, 11077.0, 11083.0, 11082.0, 11075.0, 11074.0, 11077.0, 11092.0, 11081.0, 11079.0, 11081.0, 11081.0, 11091.0, 11078.0, 11082.0, 11082.0, 11082.0, 11062.0, 11089.0, 11086.0, 11041.0, 11037.0, 11054.0, 11078.0],
      "WindowWidth": [23945.0, 23880.0, 23836.0, 23698.0, 23644.0, 23591.0, 23610.0, 23677.0, 23672.0, 23652.0, 23695.0, 23764.0, 23749.0, 23709.0, 23716.0, 23794.0, 23710.0, 23743.0, 23692.0, 23771.0, 23830.0, 23828.0, 23825.0, 23766.0, 23790.0, 23777.0, 23744.0, 23761.0, 23707.0, 23704.0, 23765.0, 23770.0, 23684.0, 23669.0, 23708.0, 23735.0, 23677.0, 23770.0, 23774.0, 23796.0, 23790.0, 23777.0, 23780.0, 23790.0, 23764.0, 23713.0, 23683.0, 23635.0, 23610.0, 23611.0, 23632.0, 23672.0, 23700.0, 23725.0, 23743.0, 23754.0, 23725.0, 23716.0, 23725.0, 23779.0, 23789.0, 23773.0, 23734.0, 23691.0, 23678.0, 23659.0, 23670.0, 23665.0, 23683.0, 23705.0, 23713.0, 23736.0, 23738.0, 23752.0, 23760.0, 23783.0, 23785.0, 23779.0, 23753.0, 23724.0, 23784.0, 23839.0, 23797.0, 23705.0, 23746.0, 23766.0, 23776.0, 23810.0, 23830.0, 23839.0, 23852.0, 23852.0, 23823.0, 23815.0, 23711.0, 23650.0, 23682.0, 23766.0, 23719.0, 23702.0, 23743.0, 23687.0, 23702.0, 23780.0, 23746.0, 23774.0, 23755.0, 23750.0, 23811.0, 23805.0, 23870.0, 23926.0, 23867.0, 23890.0, 23849.0, 23795.0, 23818.0, 23739.0, 23811.0, 23753.0, 23735.0, 23731.0, 23728.0, 23829.0, 23811.0, 23815.0, 23801.0, 23838.0, 23769.0, 23784.0, 23792.0, 23778.0, 23761.0, 23773.0, 23769.0, 23756.0, 23752.0, 23761.0, 23795.0, 23771.0, 23761.0, 23765.0, 23766.0, 23788.0, 23760.0, 23768.0, 23770.0, 23772.0, 23727.0, 23790.0, 23776.0, 23685.0, 23658.0, 23700.0, 23754.0]
    },
    "slices": {}
  }
}