{
  "AcquisitionMatrixPE": 104,
  "AcquisitionNumber": 1,
  "AcquisitionTime": "11:43:0.000000",
  "BandwidthPerPixelPhaseEncode": 17.17,
  "BaseResolution": 104,
  "BodyPartExamined": "BRAIN",
  "CoilCombinationMethod": "Sum of Squares",
  "ConsistencyInfo": "N4_VE11C_LATEST_20160120",
  "ConversionSoftware": "dcm2niix",
  "ConversionSoftwareVersion": "v1.0.20211006",
  "DerivedVendorReportedEchoSpacing": 0.000560011,
  "DeviceSerialNumber": "167006",
  "DwellTime": 2.1e-06,
  "EchoTime": 0.037,
  "EchoTime1": 0.037,
  "EchoTime2": 0.001,
  "EchoTrainLength": 104,
  "EffectiveEchoSpacing": 0.000560011,
  "FlipAngle": 52,
  "HeudiconvVersion": "0.10.0",
  "ImageComments": "Unaliased MB4/PE3/LB",
  "ImageOrientationPatientDICOM": [0.99968, 0.016773, 0.0189395, -0.00436197, 0.851691, -0.524027],
  "ImageOrientationText": "Tra>Cor(-31.6)>Sag(1.4)",
  "ImageType": [
    "ORIGINAL",
    "PRIMARY",
    "P",
    "MB",
    "ND",
    "MOSAIC",
    "PHASE"
],
  "ImagingFrequency": 123.259,
  "InPlanePhaseEncodingDirectionDICOM": "COL",
  "InstitutionAddress": "Chemin Queen-Mary 4565,Montreal,District,CA,H3W 1W5",
  "InstitutionName": "IUGM",
  "InstitutionalDepartmentName": "Department",
  "MRAcquisitionType": "2D",
  "MagneticFieldStrength": 3,
  "Manufacturer": "Siemens",
  "ManufacturersModelName": "Prisma_fit",
  "MatrixCoilMode": "SENSE",
  "Modality": "MR",
  "MultibandAccelerationFactor": 4,
  "PartialFourier": 1,
  "PatientPosition": "HFS",
  "PercentPhaseFOV": 100,
  "PercentSampling": 100,
  "PhaseEncodingDirection": "j",
  "PhaseEncodingSteps": 104,
  "PhaseResolution": 1,
  "PixelBandwidth": 2290,
  "ProcedureStepDescription": "localizers^floc",
  "ProtocolName": "func_task-flocdev_run-2",
  "PulseSequenceDetails": "%CustomerSeq%\\cmrr_mbep2d_bold",
  "ReceiveCoilActiveElements": "HC1-7;NC1,2",
  "ReceiveCoilName": "HeadNeck_64",
  "ReconMatrixPE": 104,
  "RepetitionTime": 1.49,
  "SAR": 0.0485785,
  "ScanOptions": "FS",
  "ScanningSequence": "EP",
  "SequenceName": "epfid2d1_104",
  "SequenceVariant": "SK\\SS",
  "SeriesDescription": "task-fLoc_run-2",
  "SeriesNumber": 14,
  "ShimSetting": [620, -7184, -8868, 265, 18, -140, 0, -15],
  "SliceThickness": 2,
  "SliceTiming": [0, 0.785, 0.0975, 0.8825, 0.195, 0.98, 0.295, 1.0775, 0.3925, 1.175, 0.49, 1.275, 0.5875, 1.3725, 0.685, 0, 0.785, 0.0975, 0.8825, 0.195, 0.98, 0.295, 1.0775, 0.3925, 1.175, 0.49, 1.275, 0.5875, 1.3725, 0.685, 0, 0.785, 0.0975, 0.8825, 0.195, 0.98, 0.295, 1.0775, 0.3925, 1.175, 0.49, 1.275, 0.5875, 1.3725, 0.685, 0, 0.785, 0.0975, 0.8825, 0.195, 0.98, 0.295, 1.0775, 0.3925, 1.175, 0.49, 1.275, 0.5875, 1.3725, 0.685],
  "SoftwareVersions": "syngo MR E11",
  "SpacingBetweenSlices": 2,
  "StationName": "MRC35049",
  "TaskName": "flocdev",
  "TotalReadoutTime": 0.0576811,
  "TxRefAmp": 271.806,
  "WipMemBlock": "e988e906-bb73-4740-9d9c-422624aecea2||Sequence: R016 ve11c/master r/e634e98; Dec 19 2017 11:00:25 by eja",
  "dcmmeta_affine": [
    [-1.9993598461151123, -0.008723948150873184, 0.049840252846479416, 105.55951690673828],
    [-0.03354598954319954, 1.7033812999725342, -1.0475527048110962, -48.22917556762695],
    [0.03787907958030701, 1.048053503036499, 1.7029824256896973, -94.9100341796875],
    [0.0, 0.0, 0.0, 1.0]
],
  "dcmmeta_reorient_transform": [
    [0.0, -1.0, 0.0, 103.0],
    [1.0, 0.0, 0.0, 0.0],
    [0.0, 0.0, 1.0, 0.0],
    [0.0, 0.0, 0.0, 1.0]
],
  "dcmmeta_shape": [104, 104, 60, 155],
  "dcmmeta_slice_dim": 2,
  "dcmmeta_version": 0.6,
  "global": {
    "const": {
      "AcquisitionMatrix": [104, 0, 0, 104],
      "AngioFlag": "N",
      "BitsAllocated": 16,
      "BitsStored": 16,
      "BodyPartExamined": "BRAIN",
      "Columns": 832,
      "EchoNumbers": 1,
      "EchoTime": 37.0,
      "EchoTrainLength": 104,
      "FlipAngle": 52.0,
      "HighBit": 15,
      "ImageOrientationPatient": [0.99967992901852, 0.01677299464734, 0.01893953980641, -0.0043619738472, 0.85169065073394, -0.5240267251167],
      "ImagePositionPatient": [-829.25241842225, -759.46063296211, 380.74294085763],
      "ImageType": [
        "ORIGINAL",
        "PRIMARY",
        "P",
        "MB",
        "ND",
        "MOSAIC"
],
      "ImagedNucleus": "1H",
      "ImagingFrequency": 123.258907,
      "InPlanePhaseEncodingDirection": "COL",
      "LargestImagePixelValue": 4095,
      "MRAcquisitionType": "2D",
      "MagneticFieldStrength": 3.0,
      "Manufacturer": "SIEMENS",
      "ManufacturerModelName": "Prisma_fit",
      "Modality": "MR",
      "NumberOfAverages": 1.0,
      "NumberOfPhaseEncodingSteps": 104,
      "PercentPhaseFieldOfView": 100.0,
      "PercentSampling": 100.0,
      "PerformedProcedureStepStartTime": "113301.461000",
      "PhotometricInterpretation": "MONOCHROME2",
      "PixelBandwidth": 2290.0,
      "PixelRepresentation": 0,
      "PixelSpacing": [2.0, 2.0],
      "ProtocolName": "func_task-flocdev_run-2",
      "RepetitionTime": 1490.0,
      "RescaleIntercept": -4096.0,
      "RescaleSlope": 2.0,
      "RescaleType": "US",
      "Rows": 832,
      "SAR": 0.04857848645536,
      "SamplesPerPixel": 1,
      "ScanOptions": "FS",
      "ScanningSequence": "EP",
      "SequenceName": "epfid2d1_104",
      "SequenceVariant": [
        "SK",
        "SS"
],
      "SeriesDescription": "task-fLoc_run-2",
      "SeriesNumber": 14,
      "SeriesTime": "114423.757000",
      "SliceLocation": -52.923201802535,
      "SliceThickness": 2.0,
      "SmallestImagePixelValue": 0,
      "SoftwareVersions": "syngo MR E11",
      "SpacingBetweenSlices": 1.9999999602418,
      "SpecificCharacterSet": "ISO_IR 100",
      "StudyID": "1",
      "StudyTime": "113301.392000",
      "TransmitCoilName": "Body",
      "VariableFlipAngleFlag": "N",
      "WindowCenterWidthExplanation": "Algo1",
      "dBdt": 0.0},
    "slices": {}
  },
  "time": {
    "samples": {
      "AcquisitionNumber": [1, 2, 3, 4, 5, 6, 7, 8, 9, 10, 11, 12, 13, 14, 15, 16, 17, 18, 19, 20, 21, 22, 23, 24, 25, 26, 27, 28, 29, 30, 31, 32, 33, 34, 35, 36, 37, 38, 39, 40, 41, 42, 43, 44, 45, 46, 47, 48, 49, 50, 51, 52, 53, 54, 55, 56, 57, 58, 59, 60, 61, 62, 63, 64, 65, 66, 67, 68, 69, 70, 71, 72, 73, 74, 75, 76, 77, 78, 79, 80, 81, 82, 83, 84, 85, 86, 87, 88, 89, 90, 91, 92, 93, 94, 95, 96, 97, 98, 99, 100, 101, 102, 103, 104, 105, 106, 107, 108, 109, 110, 111, 112, 113, 114, 115, 116, 117, 118, 119, 120, 121, 122, 123, 124, 125, 126, 127, 128, 129, 130, 131, 132, 133, 134, 135, 136, 137, 138, 139, 140, 141, 142, 143, 144, 145, 146, 147, 148, 149, 150, 151, 152, 153, 154, 155],
      "AcquisitionTime": ["114300.000000", "114301.490000", "114302.980000", "114304.470000", "114305.960000", "114307.450000", "114308.940000", "114310.430000", "114311.920000", "114313.410000", "114314.900000", "114316.390000", "114317.880000", "114319.370000", "114320.860000", "114322.350000", "114323.840000", "114325.330000", "114326.820000", "114328.310000", "114329.800000", "114331.290000", "114332.780000", "114334.270000", "114335.760000", "114337.250000", "114338.740000", "114340.230000", "114341.720000", "114343.210000", "114344.700000", "114346.190000", "114347.680000", "114349.170000", "114350.660000", "114352.150000", "114353.640000", "114355.130000", "114356.620000", "114358.110000", "114359.600000", "114401.090000", "114402.580000", "114404.070000", "114405.560000", "114407.050000", "114408.540000", "114410.030000", "114411.520000", "114413.010000", "114414.500000", "114415.990000", "114417.480000", "114418.970000", "114420.460000", "114421.950000", "114423.440000", "114424.930000", "114426.420000", "114427.910000", "114429.400000", "114430.890000", "114432.380000", "114433.870000", "114435.360000", "114436.850000", "114438.340000", "114439.830000", "114441.320000", "114442.810000", "114444.300000", "114445.790000", "114447.280000", "114448.770000", "114450.260000", "114451.750000", "114453.240000", "114454.730000", "114456.220000", "114457.710000", "114459.200000", "114500.690000", "114502.180000", "114503.670000", "114505.160000", "114506.650000", "114508.140000", "114509.630000", "114511.120000", "114512.610000", "114514.100000", "114515.590000", "114517.080000", "114518.570000", "114520.060000", "114521.550000", "114523.040000", "114524.530000", "114526.020000", "114527.510000", "114529.000000", "114530.490000", "114531.980000", "114533.470000", "114534.960000", "114536.450000", "114537.940000", "114539.430000", "114540.920000", "114542.410000", "114543.900000", "114545.390000", "114546.880000", "114548.370000", "114549.860000", "114551.350000", "114552.840000", "114554.330000", "114555.820000", "114557.310000", "114558.800000", "114600.290000", "114601.780000", "114603.270000", "114604.760000", "114606.250000", "114607.740000", "114609.230000", "114610.720000", "114612.210000", "114613.700000", "114615.190000", "114616.680000", "114618.170000", "114619.660000", "114621.150000", "114622.640000", "114624.130000", "114625.620000", "114627.110000", "114628.600000", "114630.090000", "114631.580000", "114633.070000", "114634.560000", "114636.050000", "114637.540000", "114639.030000", "114640.520000", "114642.010000", "114643.500000", "114644.990000", "114646.480000", "114647.970000", "114649.460000"],
      "ContentTime": ["114423.759000", "114423.762000", "114423.765000", "114423.767000", "114423.770000", "114423.772000", "114423.775000", "114423.777000", "114423.780000", "114423.788000", "114423.791000", "114423.793000", "114423.796000", "114423.798000", "114423.801000", "114423.803000", "114423.805000", "114423.808000", "114423.810000", "114423.813000", "114423.815000", "114423.818000", "114423.820000", "114423.823000", "114423.825000", "114423.828000", "114423.830000", "114423.833000", "114423.835000", "114443.677000", "114443.679000", "114443.682000", "114443.684000", "114443.687000", "114443.689000", "114443.692000", "114443.694000", "114443.697000", "114443.699000", "114443.702000", "114443.704000", "114443.707000", "114443.709000", "114443.712000", "114443.714000", "114443.717000", "114443.719000", "114443.722000", "114443.724000", "114503.675000", "114503.678000", "114503.681000", "114503.683000", "114503.686000", "114503.688000", "114503.691000", "114503.693000", "114503.696000", "114503.698000", "114503.701000", "114503.703000", "114503.706000", "114503.708000", "114503.711000", "114503.713000", "114503.716000", "114503.718000", "114503.721000", "114503.723000", "114523.693000", "114523.696000", "114523.699000", "114523.702000", "114523.705000", "114523.708000", "114523.711000", "114523.714000", "114523.717000", "114523.720000", "114523.723000", "114523.726000", "114523.729000", "114523.732000", "114523.735000", "114523.738000", "114523.741000", "114523.744000", "114523.747000", "114523.750000", "114543.657000", "114543.660000", "114543.676000", "114543.678000", "114543.681000", "114543.683000", "114543.686000", "114543.688000", "114543.691000", "114543.693000", "114543.696000", "114543.698000", "114543.701000", "114543.703000", "114543.706000", "114543.708000", "114543.711000", "114543.713000", "114543.716000", "114543.718000", "114624.502000", "114624.505000", "114624.508000", "114624.510000", "114624.513000", "114624.515000", "114624.518000", "114624.520000", "114624.523000", "114624.525000", "114624.528000", "114624.530000", "114624.533000", "114624.535000", "114624.538000", "114624.540000", "114624.543000", "114624.545000", "114624.548000", "114624.550000", "114624.553000", "114624.555000", "114624.558000", "114624.561000", "114624.563000", "114624.566000", "114624.568000", "114643.633000", "114643.636000", "114643.638000", "114643.641000", "114643.643000", "114643.646000", "114643.648000", "114643.651000", "114643.653000", "114643.656000", "114643.658000", "114643.661000", "114643.663000", "114651.414000", "114651.417000", "114651.420000", "114651.422000", "114651.425000", "114651.427000"],
      "InstanceCreationTime": ["114423.759000", "114423.762000", "114423.765000", "114423.767000", "114423.770000", "114423.772000", "114423.775000", "114423.777000", "114423.780000", "114423.788000", "114423.791000", "114423.793000", "114423.796000", "114423.798000", "114423.801000", "114423.803000", "114423.805000", "114423.808000", "114423.810000", "114423.813000", "114423.815000", "114423.818000", "114423.820000", "114423.823000", "114423.825000", "114423.828000", "114423.830000", "114423.833000", "114423.835000", "114443.677000", "114443.679000", "114443.682000", "114443.684000", "114443.687000", "114443.689000", "114443.692000", "114443.694000", "114443.697000", "114443.699000", "114443.702000", "114443.704000", "114443.707000", "114443.709000", "114443.712000", "114443.714000", "114443.717000", "114443.719000", "114443.722000", "114443.724000", "114503.675000", "114503.678000", "114503.681000", "114503.683000", "114503.686000", "114503.688000", "114503.691000", "114503.693000", "114503.696000", "114503.698000", "114503.701000", "114503.703000", "114503.706000", "114503.708000", "114503.711000", "114503.713000", "114503.716000", "114503.718000", "114503.721000", "114503.723000", "114523.693000", "114523.696000", "114523.699000", "114523.702000", "114523.705000", "114523.708000", "114523.711000", "114523.714000", "114523.717000", "114523.720000", "114523.723000", "114523.726000", "114523.729000", "114523.732000", "114523.735000", "114523.738000", "114523.741000", "114523.744000", "114523.747000", "114523.750000", "114543.657000", "114543.660000", "114543.676000", "114543.678000", "114543.681000", "114543.683000", "114543.686000", "114543.688000", "114543.691000", "114543.693000", "114543.696000", "114543.698000", "114543.701000", "114543.703000", "114543.706000", "114543.708000", "114543.711000", "114543.713000", "114543.716000", "114543.718000", "114624.502000", "114624.505000", "114624.508000", "114624.510000", "114624.513000", "114624.515000", "114624.518000", "114624.520000", "114624.523000", "114624.525000", "114624.528000", "114624.530000", "114624.533000", "114624.535000", "114624.538000", "114624.540000", "114624.543000", "114624.545000", "114624.548000", "114624.550000", "114624.553000", "114624.555000", "114624.558000", "114624.561000", "114624.563000", "114624.566000", "114624.568000", "114643.633000", "114643.636000", "114643.638000", "114643.641000", "114643.643000", "114643.646000", "114643.648000", "114643.651000", "114643.653000", "114643.656000", "114643.658000", "114643.661000", "114643.663000", "114651.414000", "114651.417000", "114651.420000", "114651.422000", "114651.425000", "114651.427000"],
      "InstanceNumber": [1, 2, 3, 4, 5, 6, 7, 8, 9, 10, 11, 12, 13, 14, 15, 16, 17, 18, 19, 20, 21, 22, 23, 24, 25, 26, 27, 28, 29, 30, 31, 32, 33, 34, 35, 36, 37, 38, 39, 40, 41, 42, 43, 44, 45, 46, 47, 48, 49, 50, 51, 52, 53, 54, 55, 56, 57, 58, 59, 60, 61, 62, 63, 64, 65, 66, 67, 68, 69, 70, 71, 72, 73, 74, 75, 76, 77, 78, 79, 80, 81, 82, 83, 84, 85, 86, 87, 88, 89, 90, 91, 92, 93, 94, 95, 96, 97, 98, 99, 100, 101, 102, 103, 104, 105, 106, 107, 108, 109, 110, 111, 112, 113, 114, 115, 116, 117, 118, 119, 120, 121, 122, 123, 124, 125, 126, 127, 128, 129, 130, 131, 132, 133, 134, 135, 136, 137, 138, 139, 140, 141, 142, 143, 144, 145, 146, 147, 148, 149, 150, 151, 152, 153, 154, 155],
      "WindowCenter": [4832.0, 4830.0, 4836.0, 4834.0, 4860.0, 4862.0, 4830.0, 4822.0, 4826.0, 4828.0, 4830.0, 4830.0, 4828.0, 4834.0, 4832.0, 4832.0, 4832.0, 4832.0, 4834.0, 4826.0, 4832.0, 4830.0, 4836.0, 4838.0, 4824.0, 4830.0, 4822.0, 4830.0, 4828.0, 4830.0, 4832.0, 4830.0, 4834.0, 4834.0, 4832.0, 4832.0, 4830.0, 4828.0, 4824.0, 4862.0, 4840.0, 4838.0, 4834.0, 4804.0, 4762.0, 4788.0, 4798.0, 4822.0, 4838.0, 4832.0, 4830.0, 4830.0, 4832.0, 4828.0, 4794.0, 4796.0, 4834.0, 4834.0, 4834.0, 4834.0, 4824.0, 4824.0, 4822.0, 4822.0, 4828.0, 4828.0, 4830.0, 4828.0, 4830.0, 4834.0, 4832.0, 4828.0, 4822.0, 4828.0, 4822.0, 4828.0, 4830.0, 4830.0, 4822.0, 4828.0, 4832.0, 4832.0, 4834.0, 4832.0, 4830.0, 4832.0, 4826.0, 4830.0, 4818.0, 4822.0, 4826.0, 4830.0, 4828.0, 4830.0, 4826.0, 4830.0, 4824.0, 4830.0, 4828.0, 4828.0, 4822.0, 4828.0, 4834.0, 4832.0, 4822.0, 4830.0, 4824.0, 4824.0, 4828.0, 4828.0, 4824.0, 4828.0, 4830.0, 4828.0, 4832.0, 4828.0, 4822.0, 4820.0, 4826.0, 4822.0, 4826.0, 4824.0, 4830.0, 4826.0, 4830.0, 4828.0, 4824.0, 4824.0, 4822.0, 4814.0, 4824.0, 4826.0, 4826.0, 4822.0, 4828.0, 4828.0, 4828.0, 4828.0, 4836.0, 4864.0, 4842.0, 4830.0, 4800.0, 4772.0, 4772.0, 4800.0, 4830.0, 4838.0, 4838.0, 4838.0, 4834.0, 4796.0, 4830.0, 4820.0, 4798.0],
      "WindowWidth": [18598.0, 18596.0, 18596.0, 18606.0, 18626.0, 18630.0, 18602.0, 18596.0, 18598.0, 18602.0, 18602.0, 18606.0, 18600.0, 18604.0, 18604.0, 18596.0, 18608.0, 18600.0, 18608.0, 18610.0, 18602.0, 18610.0, 18594.0, 18594.0, 18606.0, 18604.0, 18608.0, 18602.0, 18606.0, 18604.0, 18610.0, 18598.0, 18606.0, 18602.0, 18612.0, 18606.0, 18608.0, 18610.0, 18612.0, 18610.0, 18570.0, 18590.0, 18600.0, 18572.0, 18536.0, 18570.0, 18576.0, 18608.0, 18604.0, 18600.0, 18588.0, 18596.0, 18606.0, 18618.0, 18572.0, 18578.0, 18592.0, 18594.0, 18596.0, 18602.0, 18598.0, 18598.0, 18600.0, 18602.0, 18608.0, 18608.0, 18604.0, 18604.0, 18604.0, 18590.0, 18602.0, 18604.0, 18606.0, 18602.0, 18610.0, 18610.0, 18604.0, 18610.0, 18600.0, 18610.0, 18608.0, 18600.0, 18598.0, 18594.0, 18612.0, 18606.0, 18604.0, 18602.0, 18606.0, 18606.0, 18606.0, 18610.0, 18602.0, 18596.0, 18602.0, 18606.0, 18612.0, 18608.0, 18608.0, 18600.0, 18616.0, 18604.0, 18604.0, 18596.0, 18608.0, 18606.0, 18612.0, 18602.0, 18604.0, 18602.0, 18614.0, 18602.0, 18610.0, 18602.0, 18604.0, 18596.0, 18604.0, 18604.0, 18612.0, 18610.0, 18608.0, 18608.0, 18598.0, 18604.0, 18596.0, 18608.0, 18608.0, 18614.0, 18612.0, 18612.0, 18602.0, 18610.0, 18608.0, 18606.0, 18598.0, 18604.0, 18610.0, 18612.0, 18576.0, 18606.0, 18586.0, 18584.0, 18552.0, 18520.0, 18522.0, 18552.0, 18582.0, 18586.0, 18586.0, 18588.0, 18602.0, 18576.0, 18606.0, 18608.0, 18576.0]
    },
    "slices": {}
  }
}