{
  "AcquisitionMatrixPE": 104,
  "AcquisitionNumber": 1,
  "AcquisitionTime": "11:43:0.000000",
  "BandwidthPerPixelPhaseEncode": 17.17,
  "BaseResolution": 104,
  "BodyPartExamined": "BRAIN",
  "CoilCombinationMethod": "Sum of Squares",
  "ConsistencyInfo": "N4_VE11C_LATEST_20160120",
  "ConversionSoftware": "dcm2niix",
  "ConversionSoftwareVersion": "v1.0.20211006",
  "DerivedVendorReportedEchoSpacing": 0.000560011,
  "DeviceSerialNumber": "167006",
  "DwellTime": 2.1e-06,
  "EchoTime": 0.037,
  "EchoTrainLength": 104,
  "EffectiveEchoSpacing": 0.000560011,
  "FlipAngle": 52,
  "HeudiconvVersion": "0.10.0",
  "ImageComments": "Unaliased MB4/PE3/LB",
  "ImageOrientationPatientDICOM": [0.99968, 0.016773, 0.0189395, -0.00436197, 0.851691, -0.524027],
  "ImageOrientationText": "Tra>Cor(-31.6)>Sag(1.4)",
  "ImageType": [
    "ORIGINAL",
    "PRIMARY",
    "M",
    "MB",
    "ND",
    "MOSAIC"
],
  "ImagingFrequency": 123.259,
  "InPlanePhaseEncodingDirectionDICOM": "COL",
  "InstitutionAddress": "Chemin Queen-Mary 4565,Montreal,District,CA,H3W 1W5",
  "InstitutionName": "IUGM",
  "InstitutionalDepartmentName": "Department",
  "MRAcquisitionType": "2D",
  "MagneticFieldStrength": 3,
  "Manufacturer": "Siemens",
  "ManufacturersModelName": "Prisma_fit",
  "MatrixCoilMode": "SENSE",
  "Modality": "MR",
  "MultibandAccelerationFactor": 4,
  "PartialFourier": 1,
  "PatientPosition": "HFS",
  "PercentPhaseFOV": 100,
  "PercentSampling": 100,
  "PhaseEncodingDirection": "j",
  "PhaseEncodingSteps": 104,
  "PhaseResolution": 1,
  "PixelBandwidth": 2290,
  "ProcedureStepDescription": "localizers^floc",
  "ProtocolName": "func_task-flocdev_run-2",
  "PulseSequenceDetails": "%CustomerSeq%\\cmrr_mbep2d_bold",
  "ReceiveCoilActiveElements": "HC1-7;NC1,2",
  "ReceiveCoilName": "HeadNeck_64",
  "ReconMatrixPE": 104,
  "RepetitionTime": 1.49,
  "SAR": 0.0485785,
  "ScanOptions": "FS",
  "ScanningSequence": "EP",
  "SequenceName": "epfid2d1_104",
  "SequenceVariant": "SK\\SS",
  "SeriesDescription": "task-fLoc_run-2",
  "SeriesNumber": 13,
  "ShimSetting": [620, -7184, -8868, 265, 18, -140, 0, -15],
  "SliceThickness": 2,
  "SliceTiming": [0, 0.785, 0.0975, 0.8825, 0.195, 0.98, 0.295, 1.0775, 0.3925, 1.175, 0.49, 1.275, 0.5875, 1.3725, 0.685, 0, 0.785, 0.0975, 0.8825, 0.195, 0.98, 0.295, 1.0775, 0.3925, 1.175, 0.49, 1.275, 0.5875, 1.3725, 0.685, 0, 0.785, 0.0975, 0.8825, 0.195, 0.98, 0.295, 1.0775, 0.3925, 1.175, 0.49, 1.275, 0.5875, 1.3725, 0.685, 0, 0.785, 0.0975, 0.8825, 0.195, 0.98, 0.295, 1.0775, 0.3925, 1.175, 0.49, 1.275, 0.5875, 1.3725, 0.685],
  "SoftwareVersions": "syngo MR E11",
  "SpacingBetweenSlices": 2,
  "StationName": "MRC35049",
  "TaskName": "flocdev",
  "TotalReadoutTime": 0.0576811,
  "TxRefAmp": 271.806,
  "WipMemBlock": "e988e906-bb73-4740-9d9c-422624aecea2||Sequence: R016 ve11c/master r/e634e98; Dec 19 2017 11:00:25 by eja",
  "dcmmeta_affine": [
    [-1.9993598461151123, -0.008723948150873184, 0.049840252846479416, 105.55951690673828],
    [-0.03354598954319954, 1.7033812999725342, -1.0475527048110962, -48.22917556762695],
    [0.03787907958030701, 1.048053503036499, 1.7029824256896973, -94.9100341796875],
    [0.0, 0.0, 0.0, 1.0]
],
  "dcmmeta_reorient_transform": [
    [0.0, -1.0, 0.0, 103.0],
    [1.0, 0.0, 0.0, 0.0],
    [0.0, 0.0, 1.0, 0.0],
    [0.0, 0.0, 0.0, 1.0]
],
  "dcmmeta_shape": [104, 104, 60, 155],
  "dcmmeta_slice_dim": 2,
  "dcmmeta_version": 0.6,
  "global": {
    "const": {
      "AcquisitionMatrix": [104, 0, 0, 104],
      "AngioFlag": "N",
      "BitsAllocated": 16,
      "BitsStored": 16,
      "BodyPartExamined": "BRAIN",
      "Columns": 832,
      "EchoNumbers": 1,
      "EchoTime": 37.0,
      "EchoTrainLength": 104,
      "FlipAngle": 52.0,
      "HighBit": 15,
      "ImageOrientationPatient": [0.99967992901852, 0.01677299464734, 0.01893953980641, -0.0043619738472, 0.85169065073394, -0.5240267251167],
      "ImagePositionPatient": [-829.25241842225, -759.46063296211, 380.74294085763],
      "ImageType": [
        "ORIGINAL",
        "PRIMARY",
        "M",
        "MB",
        "ND",
        "MOSAIC"
],
      "ImagedNucleus": "1H",
      "ImagingFrequency": 123.258907,
      "InPlanePhaseEncodingDirection": "COL",
      "MRAcquisitionType": "2D",
      "MagneticFieldStrength": 3.0,
      "Manufacturer": "SIEMENS",
      "ManufacturerModelName": "Prisma_fit",
      "Modality": "MR",
      "NumberOfAverages": 1.0,
      "NumberOfPhaseEncodingSteps": 104,
      "PercentPhaseFieldOfView": 100.0,
      "PercentSampling": 100.0,
      "PerformedProcedureStepStartTime": "113301.461000",
      "PhotometricInterpretation": "MONOCHROME2",
      "PixelBandwidth": 2290.0,
      "PixelRepresentation": 0,
      "PixelSpacing": [2.0, 2.0],
      "ProtocolName": "func_task-flocdev_run-2",
      "RepetitionTime": 1490.0,
      "Rows": 832,
      "SAR": 0.04857848645536,
      "SamplesPerPixel": 1,
      "ScanOptions": "FS",
      "ScanningSequence": "EP",
      "SequenceName": "epfid2d1_104",
      "SequenceVariant": [
        "SK",
        "SS"
],
      "SeriesDescription": "task-fLoc_run-2",
      "SeriesNumber": 13,
      "SeriesTime": "114423.588000",
      "SliceLocation": -52.923201802535,
      "SliceThickness": 2.0,
      "SmallestImagePixelValue": 0,
      "SoftwareVersions": "syngo MR E11",
      "SpacingBetweenSlices": 1.9999999602418,
      "SpecificCharacterSet": "ISO_IR 100",
      "StudyID": "1",
      "StudyTime": "113301.392000",
      "TransmitCoilName": "Body",
      "VariableFlipAngleFlag": "N",
      "WindowCenterWidthExplanation": "Algo1",
      "dBdt": 0.0},
    "slices": {}
  },
  "time": {
    "samples": {
      "AcquisitionNumber": [1, 2, 3, 4, 5, 6, 7, 8, 9, 10, 11, 12, 13, 14, 15, 16, 17, 18, 19, 20, 21, 22, 23, 24, 25, 26, 27, 28, 29, 30, 31, 32, 33, 34, 35, 36, 37, 38, 39, 40, 41, 42, 43, 44, 45, 46, 47, 48, 49, 50, 51, 52, 53, 54, 55, 56, 57, 58, 59, 60, 61, 62, 63, 64, 65, 66, 67, 68, 69, 70, 71, 72, 73, 74, 75, 76, 77, 78, 79, 80, 81, 82, 83, 84, 85, 86, 87, 88, 89, 90, 91, 92, 93, 94, 95, 96, 97, 98, 99, 100, 101, 102, 103, 104, 105, 106, 107, 108, 109, 110, 111, 112, 113, 114, 115, 116, 117, 118, 119, 120, 121, 122, 123, 124, 125, 126, 127, 128, 129, 130, 131, 132, 133, 134, 135, 136, 137, 138, 139, 140, 141, 142, 143, 144, 145, 146, 147, 148, 149, 150, 151, 152, 153, 154, 155],
      "AcquisitionTime": ["114300.000000", "114301.490000", "114302.980000", "114304.470000", "114305.960000", "114307.450000", "114308.940000", "114310.430000", "114311.920000", "114313.410000", "114314.900000", "114316.390000", "114317.880000", "114319.370000", "114320.860000", "114322.350000", "114323.840000", "114325.330000", "114326.820000", "114328.310000", "114329.800000", "114331.290000", "114332.780000", "114334.270000", "114335.760000", "114337.250000", "114338.740000", "114340.230000", "114341.720000", "114343.210000", "114344.700000", "114346.190000", "114347.680000", "114349.170000", "114350.660000", "114352.150000", "114353.640000", "114355.130000", "114356.620000", "114358.110000", "114359.600000", "114401.090000", "114402.580000", "114404.070000", "114405.560000", "114407.050000", "114408.540000", "114410.030000", "114411.520000", "114413.010000", "114414.500000", "114415.990000", "114417.480000", "114418.970000", "114420.460000", "114421.950000", "114423.440000", "114424.930000", "114426.420000", "114427.910000", "114429.400000", "114430.890000", "114432.380000", "114433.870000", "114435.360000", "114436.850000", "114438.340000", "114439.830000", "114441.320000", "114442.810000", "114444.300000", "114445.790000", "114447.280000", "114448.770000", "114450.260000", "114451.750000", "114453.240000", "114454.730000", "114456.220000", "114457.710000", "114459.200000", "114500.690000", "114502.180000", "114503.670000", "114505.160000", "114506.650000", "114508.140000", "114509.630000", "114511.120000", "114512.610000", "114514.100000", "114515.590000", "114517.080000", "114518.570000", "114520.060000", "114521.550000", "114523.040000", "114524.530000", "114526.020000", "114527.510000", "114529.000000", "114530.490000", "114531.980000", "114533.470000", "114534.960000", "114536.450000", "114537.940000", "114539.430000", "114540.920000", "114542.410000", "114543.900000", "114545.390000", "114546.880000", "114548.370000", "114549.860000", "114551.350000", "114552.840000", "114554.330000", "114555.820000", "114557.310000", "114558.800000", "114600.290000", "114601.780000", "114603.270000", "114604.760000", "114606.250000", "114607.740000", "114609.230000", "114610.720000", "114612.210000", "114613.700000", "114615.190000", "114616.680000", "114618.170000", "114619.660000", "114621.150000", "114622.640000", "114624.130000", "114625.620000", "114627.110000", "114628.600000", "114630.090000", "114631.580000", "114633.070000", "114634.560000", "114636.050000", "114637.540000", "114639.030000", "114640.520000", "114642.010000", "114643.500000", "114644.990000", "114646.480000", "114647.970000", "114649.460000"],
      "ContentTime": ["114423.591000", "114423.595000", "114423.598000", "114423.601000", "114423.605000", "114423.608000", "114423.611000", "114423.615000", "114423.618000", "114423.622000", "114423.625000", "114423.628000", "114423.631000", "114423.647000", "114423.651000", "114423.654000", "114423.657000", "114423.661000", "114423.664000", "114423.667000", "114423.678000", "114423.681000", "114423.684000", "114423.688000", "114423.691000", "114423.694000", "114423.698000", "114423.701000", "114423.704000", "114443.559000", "114443.563000", "114443.566000", "114443.570000", "114443.573000", "114443.576000", "114443.579000", "114443.583000", "114443.586000", "114443.589000", "114443.593000", "114443.596000", "114443.599000", "114443.603000", "114443.606000", "114443.609000", "114443.618000", "114443.621000", "114443.624000", "114443.628000", "114503.558000", "114503.562000", "114503.565000", "114503.569000", "114503.572000", "114503.575000", "114503.589000", "114503.592000", "114503.596000", "114503.599000", "114503.602000", "114503.606000", "114503.609000", "114503.612000", "114503.616000", "114503.619000", "114503.622000", "114503.625000", "114503.629000", "114503.632000", "114523.559000", "114523.563000", "114523.566000", "114523.570000", "114523.573000", "114523.577000", "114523.580000", "114523.583000", "114523.587000", "114523.590000", "114523.594000", "114523.597000", "114523.601000", "114523.605000", "114523.609000", "114523.613000", "114523.617000", "114523.621000", "114523.625000", "114523.629000", "114543.559000", "114543.563000", "114543.566000", "114543.570000", "114543.573000", "114543.576000", "114543.580000", "114543.583000", "114543.586000", "114543.590000", "114543.593000", "114543.596000", "114543.600000", "114543.603000", "114543.606000", "114543.610000", "114543.613000", "114543.616000", "114543.620000", "114543.623000", "114623.559000", "114623.563000", "114623.566000", "114623.570000", "114623.573000", "114623.576000", "114623.580000", "114623.583000", "114623.603000", "114623.607000", "114623.610000", "114623.613000", "114623.617000", "114623.620000", "114623.623000", "114623.627000", "114623.630000", "114623.633000", "114623.637000", "114623.640000", "114623.643000", "114623.646000", "114623.650000", "114623.653000", "114623.657000", "114623.660000", "114623.663000", "114643.559000", "114643.563000", "114643.566000", "114643.570000", "114643.573000", "114643.576000", "114643.580000", "114643.583000", "114643.586000", "114643.590000", "114643.593000", "114643.596000", "114643.600000", "114651.345000", "114651.349000", "114651.352000", "114651.355000", "114651.358000", "114651.362000"],
      "InstanceCreationTime": ["114423.591000", "114423.595000", "114423.598000", "114423.601000", "114423.605000", "114423.608000", "114423.611000", "114423.615000", "114423.618000", "114423.622000", "114423.625000", "114423.628000", "114423.631000", "114423.647000", "114423.651000", "114423.654000", "114423.657000", "114423.661000", "114423.664000", "114423.667000", "114423.678000", "114423.681000", "114423.684000", "114423.688000", "114423.691000", "114423.694000", "114423.698000", "114423.701000", "114423.704000", "114443.559000", "114443.563000", "114443.566000", "114443.570000", "114443.573000", "114443.576000", "114443.579000", "114443.583000", "114443.586000", "114443.589000", "114443.593000", "114443.596000", "114443.599000", "114443.603000", "114443.606000", "114443.609000", "114443.618000", "114443.621000", "114443.624000", "114443.628000", "114503.558000", "114503.562000", "114503.565000", "114503.569000", "114503.572000", "114503.575000", "114503.589000", "114503.592000", "114503.596000", "114503.599000", "114503.602000", "114503.606000", "114503.609000", "114503.612000", "114503.616000", "114503.619000", "114503.622000", "114503.625000", "114503.629000", "114503.632000", "114523.559000", "114523.563000", "114523.566000", "114523.570000", "114523.573000", "114523.577000", "114523.580000", "114523.583000", "114523.587000", "114523.590000", "114523.594000", "114523.597000", "114523.601000", "114523.605000", "114523.609000", "114523.613000", "114523.617000", "114523.621000", "114523.625000", "114523.629000", "114543.559000", "114543.563000", "114543.566000", "114543.570000", "114543.573000", "114543.576000", "114543.580000", "114543.583000", "114543.586000", "114543.590000", "114543.593000", "114543.596000", "114543.600000", "114543.603000", "114543.606000", "114543.610000", "114543.613000", "114543.616000", "114543.620000", "114543.623000", "114623.559000", "114623.563000", "114623.566000", "114623.570000", "114623.573000", "114623.576000", "114623.580000", "114623.583000", "114623.603000", "114623.607000", "114623.610000", "114623.613000", "114623.617000", "114623.620000", "114623.623000", "114623.627000", "114623.630000", "114623.633000", "114623.637000", "114623.640000", "114623.643000", "114623.646000", "114623.650000", "114623.653000", "114623.657000", "114623.660000", "114623.663000", "114643.559000", "114643.563000", "114643.566000", "114643.570000", "114643.573000", "114643.576000", "114643.580000", "114643.583000", "114643.586000", "114643.590000", "114643.593000", "114643.596000", "114643.600000", "114651.345000", "114651.349000", "114651.352000", "114651.355000", "114651.358000", "114651.362000"],
      "InstanceNumber": [1, 2, 3, 4, 5, 6, 7, 8, 9, 10, 11, 12, 13, 14, 15, 16, 17, 18, 19, 20, 21, 22, 23, 24, 25, 26, 27, 28, 29, 30, 31, 32, 33, 34, 35, 36, 37, 38, 39, 40, 41, 42, 43, 44, 45, 46, 47, 48, 49, 50, 51, 52, 53, 54, 55, 56, 57, 58, 59, 60, 61, 62, 63, 64, 65, 66, 67, 68, 69, 70, 71, 72, 73, 74, 75, 76, 77, 78, 79, 80, 81, 82, 83, 84, 85, 86, 87, 88, 89, 90, 91, 92, 93, 94, 95, 96, 97, 98, 99, 100, 101, 102, 103, 104, 105, 106, 107, 108, 109, 110, 111, 112, 113, 114, 115, 116, 117, 118, 119, 120, 121, 122, 123, 124, 125, 126, 127, 128, 129, 130, 131, 132, 133, 134, 135, 136, 137, 138, 139, 140, 141, 142, 143, 144, 145, 146, 147, 148, 149, 150, 151, 152, 153, 154, 155],
      "LargestImagePixelValue": [49259, 47839, 47159, 47025, 47482, 47133, 46444, 46771, 46699, 46613, 46613, 47026, 47053, 47391, 47538, 47152, 47018, 47138, 47514, 46768, 47359, 46872, 46746, 46383, 47252, 47246, 47422, 47104, 47199, 47305, 47193, 46689, 46891, 47198, 46629, 46883, 46526, 46745, 46153, 47955, 46838, 46166, 46820, 46751, 47209, 47160, 48384, 47860, 48041, 47212, 47071, 46906, 46872, 47500, 46591, 47601, 47627, 46813, 46961, 46432, 46667, 47805, 47303, 47213, 47056, 47321, 46915, 47184, 46863, 46925, 46540, 45980, 46554, 47714, 46804, 47107, 47100, 46884, 47058, 47459, 47343, 47507, 47082, 47252, 47156, 47405, 47281, 48015, 46933, 47253, 46986, 47297, 47368, 47349, 46902, 47474, 47612, 47392, 46803, 47207, 46482, 47042, 47229, 47359, 46626, 47190, 47290, 46966, 47252, 46880, 46976, 47967, 47254, 47085, 47261, 47074, 46978, 47215, 47208, 47505, 47229, 47300, 47311, 47578, 47152, 46796, 47184, 46923, 47083, 47686, 46924, 46946, 46881, 47469, 46735, 46665, 46168, 47357, 47077, 47314, 45945, 46155, 46864, 46927, 47691, 47764, 47448, 47861, 47557, 47011, 47183, 45938, 47171, 46711, 46247],
      "WindowCenter": [11109.0, 11055.0, 11050.0, 11059.0, 11053.0, 11047.0, 11023.0, 11013.0, 11051.0, 11072.0, 11073.0, 11067.0, 11094.0, 11082.0, 11083.0, 11074.0, 11060.0, 11088.0, 11078.0, 11074.0, 11079.0, 11063.0, 11097.0, 11079.0, 11067.0, 11075.0, 11059.0, 11089.0, 11065.0, 11061.0, 11040.0, 11026.0, 11052.0, 11042.0, 11009.0, 11030.0, 11074.0, 11063.0, 11050.0, 11075.0, 11068.0, 11063.0, 11021.0, 11002.0, 10987.0, 10994.0, 11064.0, 11082.0, 11084.0, 11062.0, 11038.0, 11043.0, 11030.0, 11012.0, 11013.0, 11064.0, 11096.0, 11088.0, 11066.0, 11029.0, 11007.0, 11041.0, 11057.0, 11049.0, 11069.0, 11106.0, 11076.0, 11072.0, 11066.0, 11059.0, 11091.0, 11072.0, 11049.0, 11082.0, 11074.0, 11087.0, 11107.0, 11114.0, 11100.0, 11090.0, 11073.0, 11077.0, 11071.0, 11062.0, 11037.0, 11022.0, 11018.0, 11045.0, 11051.0, 11064.0, 11061.0, 11077.0, 11081.0, 11080.0, 11068.0, 11066.0, 11058.0, 11060.0, 11082.0, 11106.0, 11092.0, 11084.0, 11053.0, 11077.0, 11097.0, 11111.0, 11121.0, 11084.0, 11089.0, 11085.0, 11066.0, 11106.0, 11090.0, 11068.0, 11075.0, 11064.0, 11076.0, 11091.0, 11092.0, 11078.0, 11067.0, 11031.0, 11008.0, 11042.0, 11085.0, 11073.0, 11069.0, 11060.0, 11030.0, 11039.0, 11081.0, 11076.0, 11059.0, 11074.0, 11096.0, 11105.0, 11081.0, 11055.0, 11063.0, 11105.0, 11114.0, 11095.0, 11074.0, 11036.0, 11004.0, 10980.0, 10972.0, 10992.0, 11036.0, 11059.0, 11105.0, 11105.0, 11095.0, 11096.0, 11056.0],
      "WindowWidth": [23908.0, 23752.0, 23723.0, 23740.0, 23713.0, 23700.0, 23648.0, 23617.0, 23706.0, 23755.0, 23759.0, 23743.0, 23801.0, 23777.0, 23772.0, 23759.0, 23722.0, 23786.0, 23763.0, 23757.0, 23768.0, 23732.0, 23809.0, 23772.0, 23742.0, 23756.0, 23721.0, 23790.0, 23738.0, 23726.0, 23682.0, 23642.0, 23704.0, 23680.0, 23609.0, 23651.0, 23758.0, 23733.0, 23704.0, 23756.0, 23743.0, 23733.0, 23639.0, 23592.0, 23556.0, 23570.0, 23727.0, 23770.0, 23772.0, 23725.0, 23670.0, 23682.0, 23658.0, 23613.0, 23619.0, 23730.0, 23810.0, 23791.0, 23740.0, 23654.0, 23606.0, 23677.0, 23719.0, 23701.0, 23744.0, 23832.0, 23763.0, 23750.0, 23740.0, 23721.0, 23797.0, 23758.0, 23704.0, 23771.0, 23758.0, 23787.0, 23832.0, 23852.0, 23818.0, 23791.0, 23748.0, 23755.0, 23741.0, 23721.0, 23666.0, 23632.0, 23623.0, 23680.0, 23701.0, 23729.0, 23724.0, 23760.0, 23770.0, 23767.0, 23742.0, 23735.0, 23715.0, 23722.0, 23774.0, 23828.0, 23803.0, 23781.0, 23710.0, 23761.0, 23813.0, 23841.0, 23866.0, 23780.0, 23790.0, 23785.0, 23739.0, 23820.0, 23794.0, 23743.0, 23756.0, 23732.0, 23760.0, 23789.0, 23792.0, 23760.0, 23737.0, 23656.0, 23603.0, 23679.0, 23782.0, 23759.0, 23745.0, 23726.0, 23656.0, 23673.0, 23773.0, 23761.0, 23720.0, 23754.0, 23807.0, 23830.0, 23781.0, 23712.0, 23736.0, 23835.0, 23861.0, 23812.0, 23757.0, 23668.0, 23595.0, 23541.0, 23523.0, 23566.0, 23668.0, 23731.0, 23829.0, 23835.0, 23801.0, 23802.0, 23716.0]
    },
    "slices": {}
  }
}