{
  "AcquisitionMatrixPE": 104,
  "AcquisitionNumber": 1,
  "AcquisitionTime": "18:26:12.282500",
  "BandwidthPerPixelPhaseEncode": 17.17,
  "BaseResolution": 104,
  "BodyPartExamined": "BRAIN",
  "CoilCombinationMethod": "Sum of Squares",
  "ConsistencyInfo": "N4_VE11C_LATEST_20160120",
  "ConversionSoftware": "dcm2niix",
  "ConversionSoftwareVersion": "v1.0.20211006",
  "DerivedVendorReportedEchoSpacing": 0.000560011,
  "DeviceSerialNumber": "167006",
  "DwellTime": 2.1e-06,
  "EchoTime": 0.037,
  "EchoTrainLength": 104,
  "EffectiveEchoSpacing": 0.000560011,
  "FlipAngle": 52,
  "HeudiconvVersion": "0.10.0",
  "ImageComments": "Unaliased MB4/PE3/LB",
  "ImageOrientationPatientDICOM": [0.998599, 0.0221848, 0.048034, -0.00278861, 0.928656, -0.370932],
  "ImageOrientationText": "Tra>Cor(-21.8)>Sag(3.0)",
  "ImageType": [
    "ORIGINAL",
    "PRIMARY",
    "M",
    "MB",
    "ND",
    "MOSAIC"
],
  "ImagingFrequency": 123.259,
  "InPlanePhaseEncodingDirectionDICOM": "COL",
  "InstitutionAddress": "Chemin Queen-Mary 4565,Montreal,District,CA,H3W 1W5",
  "InstitutionName": "IUGM",
  "InstitutionalDepartmentName": "Department",
  "MRAcquisitionType": "2D",
  "MagneticFieldStrength": 3,
  "Manufacturer": "Siemens",
  "ManufacturersModelName": "Prisma_fit",
  "MatrixCoilMode": "SENSE",
  "Modality": "MR",
  "MultibandAccelerationFactor": 4,
  "PartialFourier": 1,
  "PatientPosition": "HFS",
  "PercentPhaseFOV": 100,
  "PercentSampling": 100,
  "PhaseEncodingDirection": "j",
  "PhaseEncodingSteps": 104,
  "PhaseResolution": 1,
  "PixelBandwidth": 2290,
  "ProcedureStepDescription": "localizers^fLoc",
  "ProtocolName": "task_fLoc_run-1",
  "PulseSequenceDetails": "%CustomerSeq%\\cmrr_mbep2d_bold",
  "ReceiveCoilActiveElements": "HC1-7;NC1,2",
  "ReceiveCoilName": "HeadNeck_64",
  "ReconMatrixPE": 104,
  "RepetitionTime": 1.49,
  "SAR": 0.0523268,
  "ScanOptions": "FS",
  "ScanningSequence": "EP",
  "SequenceName": "epfid2d1_104",
  "SequenceVariant": "SK\\SS",
  "SeriesDescription": "task_fLoc_run-1",
  "SeriesNumber": 13,
  "ShimSetting": [632, -7184, -8828, 622, 67, 47, -59, -5],
  "SliceThickness": 2,
  "SliceTiming": [0, 0.785, 0.0975, 0.8825, 0.1975, 0.98, 0.295, 1.0775, 0.3925, 1.175, 0.49, 1.275, 0.5875, 1.3725, 0.6875, 0, 0.785, 0.0975, 0.8825, 0.1975, 0.98, 0.295, 1.0775, 0.3925, 1.175, 0.49, 1.275, 0.5875, 1.3725, 0.6875, 0, 0.785, 0.0975, 0.8825, 0.1975, 0.98, 0.295, 1.0775, 0.3925, 1.175, 0.49, 1.275, 0.5875, 1.3725, 0.6875, 0, 0.785, 0.0975, 0.8825, 0.1975, 0.98, 0.295, 1.0775, 0.3925, 1.175, 0.49, 1.275, 0.5875, 1.3725, 0.6875],
  "SoftwareVersions": "syngo MR E11",
  "SpacingBetweenSlices": 2,
  "StationName": "MRC35049",
  "TaskName": "fLoc",
  "TotalReadoutTime": 0.0576811,
  "TxRefAmp": 281.818,
  "WipMemBlock": "89946306-bb2d-4900-ac91-00f78c3ccdf2||Sequence: R016 ve11c/master r/e634e98; Dec 19 2017 11:00:25 by eja",
  "dcmmeta_affine": [
    [-1.9971985816955566, -0.0055772108025848866, 0.10567218065261841, 105.17627716064453],
    [-0.04436963051557541, 1.8573113679885864, -0.7405576705932617, -57.09548568725586],
    [0.09606795758008957, 0.7418646812438965, 1.8548336029052734, -69.15271759033203],
    [0.0, 0.0, 0.0, 1.0]
],
  "dcmmeta_reorient_transform": [
    [0.0, -1.0, 0.0, 103.0],
    [1.0, 0.0, 0.0, 0.0],
    [0.0, 0.0, 1.0, 0.0],
    [0.0, 0.0, 0.0, 1.0]
],
  "dcmmeta_shape": [104, 104, 60, 155],
  "dcmmeta_slice_dim": 2,
  "dcmmeta_version": 0.6,
  "global": {
    "const": {
      "AcquisitionMatrix": [104, 0, 0, 104],
      "AngioFlag": "N",
      "BitsAllocated": 16,
      "BitsStored": 16,
      "BodyPartExamined": "BRAIN",
      "Columns": 832,
      "EchoNumbers": 1,
      "EchoTime": 37.0,
      "EchoTrainLength": 104,
      "FlipAngle": 52.0,
      "HighBit": 15,
      "ImageOrientationPatient": [0.99859930449932, 0.02218481525398, 0.04803397782427, -0.0027886054911, 0.92865570733245, -0.3709323400814],
      "ImagePositionPatient": [-829.55201173146, -826.41948996281, 242.32934915639],
      "ImageType": [
        "ORIGINAL",
        "PRIMARY",
        "M",
        "MB",
        "ND",
        "MOSAIC"
],
      "ImagedNucleus": "1H",
      "ImagingFrequency": 123.258912,
      "InPlanePhaseEncodingDirection": "COL",
      "MRAcquisitionType": "2D",
      "MagneticFieldStrength": 3.0,
      "Manufacturer": "SIEMENS",
      "ManufacturerModelName": "Prisma_fit",
      "Modality": "MR",
      "NumberOfAverages": 1.0,
      "NumberOfPhaseEncodingSteps": 104,
      "PercentPhaseFieldOfView": 100.0,
      "PercentSampling": 100.0,
      "PerformedProcedureStepStartTime": "181933.348000",
      "PhotometricInterpretation": "MONOCHROME2",
      "PixelBandwidth": 2290.0,
      "PixelRepresentation": 0,
      "PixelSpacing": [2.0, 2.0],
      "ProtocolName": "task_fLoc_run-1",
      "RepetitionTime": 1490.0,
      "Rows": 832,
      "SAR": 0.05232683257019,
      "SamplesPerPixel": 1,
      "ScanOptions": "FS",
      "ScanningSequence": "EP",
      "SequenceName": "epfid2d1_104",
      "SequenceVariant": [
        "SK",
        "SS"
],
      "SeriesDescription": "task_fLoc_run-1",
      "SeriesNumber": 13,
      "SeriesTime": "182712.818000",
      "SliceLocation": -37.435042180484,
      "SliceThickness": 2.0,
      "SmallestImagePixelValue": 0,
      "SoftwareVersions": "syngo MR E11",
      "SpacingBetweenSlices": 1.999999957879,
      "SpecificCharacterSet": "ISO_IR 100",
      "StudyID": "1",
      "StudyTime": "181933.246000",
      "TransmitCoilName": "Body",
      "VariableFlipAngleFlag": "N",
      "WindowCenterWidthExplanation": "Algo1",
      "dBdt": 0.0},
    "slices": {}
  },
  "time": {
    "samples": {
      "AcquisitionNumber": [1, 2, 3, 4, 5, 6, 7, 8, 9, 10, 11, 12, 13, 14, 15, 16, 17, 18, 19, 20, 21, 22, 23, 24, 25, 26, 27, 28, 29, 30, 31, 32, 33, 34, 35, 36, 37, 38, 39, 40, 41, 42, 43, 44, 45, 46, 47, 48, 49, 50, 51, 52, 53, 54, 55, 56, 57, 58, 59, 60, 61, 62, 63, 64, 65, 66, 67, 68, 69, 70, 71, 72, 73, 74, 75, 76, 77, 78, 79, 80, 81, 82, 83, 84, 85, 86, 87, 88, 89, 90, 91, 92, 93, 94, 95, 96, 97, 98, 99, 100, 101, 102, 103, 104, 105, 106, 107, 108, 109, 110, 111, 112, 113, 114, 115, 116, 117, 118, 119, 120, 121, 122, 123, 124, 125, 126, 127, 128, 129, 130, 131, 132, 133, 134, 135, 136, 137, 138, 139, 140, 141, 142, 143, 144, 145, 146, 147, 148, 149, 150, 151, 152, 153, 154, 155],
      "AcquisitionTime": ["182612.282500", "182613.772500", "182615.262500", "182616.752500", "182618.242500", "182619.732500", "182621.222500", "182622.712500", "182624.202500", "182625.692500", "182627.182500", "182628.672500", "182630.162500", "182631.652500", "182633.142500", "182634.632500", "182636.122500", "182637.612500", "182639.102500", "182640.592500", "182642.082500", "182643.572500", "182645.062500", "182646.552500", "182648.042500", "182649.532500", "182651.022500", "182652.512500", "182654.002500", "182655.492500", "182656.982500", "182658.472500", "182659.962500", "182701.452500", "182702.942500", "182704.432500", "182705.922500", "182707.412500", "182708.902500", "182710.392500", "182711.882500", "182713.372500", "182714.862500", "182716.352500", "182717.842500", "182719.332500", "182720.822500", "182722.312500", "182723.802500", "182725.292500", "182726.782500", "182728.272500", "182729.762500", "182731.252500", "182732.742500", "182734.232500", "182735.722500", "182737.212500", "182738.702500", "182740.192500", "182741.682500", "182743.172500", "182744.662500", "182746.152500", "182747.642500", "182749.132500", "182750.622500", "182752.112500", "182753.602500", "182755.092500", "182756.582500", "182758.072500", "182759.562500", "182801.052500", "182802.542500", "182804.032500", "182805.522500", "182807.012500", "182808.502500", "182809.992500", "182811.482500", "182812.972500", "182814.462500", "182815.952500", "182817.442500", "182818.932500", "182820.422500", "182821.912500", "182823.402500", "182824.892500", "182826.382500", "182827.872500", "182829.362500", "182830.852500", "182832.342500", "182833.832500", "182835.322500", "182836.812500", "182838.302500", "182839.792500", "182841.282500", "182842.772500", "182844.262500", "182845.752500", "182847.242500", "182848.732500", "182850.222500", "182851.712500", "182853.202500", "182854.692500", "182856.182500", "182857.672500", "182859.162500", "182900.652500", "182902.142500", "182903.632500", "182905.122500", "182906.612500", "182908.102500", "182909.592500", "182911.082500", "182912.572500", "182914.062500", "182915.552500", "182917.042500", "182918.532500", "182920.022500", "182921.512500", "182923.002500", "182924.492500", "182925.982500", "182927.472500", "182928.962500", "182930.452500", "182931.942500", "182933.432500", "182934.922500", "182936.412500", "182937.902500", "182939.392500", "182940.882500", "182942.372500", "182943.862500", "182945.352500", "182946.842500", "182948.332500", "182949.822500", "182951.312500", "182952.802500", "182954.292500", "182955.782500", "182957.272500", "182958.762500", "183000.252500", "183001.742500"],
      "ContentTime": ["182712.821000", "182712.825000", "182712.828000", "182712.832000", "182712.835000", "182712.838000", "182732.783000", "182732.787000", "182732.790000", "182732.794000", "182732.797000", "182732.800000", "182732.804000", "182732.807000", "182732.810000", "182732.813000", "182732.817000", "182732.820000", "182732.823000", "182732.827000", "182732.830000", "182732.833000", "182732.836000", "182732.840000", "182732.843000", "182732.846000", "182752.783000", "182752.787000", "182752.790000", "182752.793000", "182752.796000", "182752.800000", "182752.803000", "182752.807000", "182752.810000", "182752.813000", "182752.816000", "182752.820000", "182752.823000", "182752.833000", "182752.836000", "182752.840000", "182752.843000", "182752.846000", "182752.849000", "182752.853000", "182752.856000", "182812.782000", "182812.786000", "182812.789000", "182812.792000", "182812.795000", "182812.799000", "182812.802000", "182812.806000", "182812.809000", "182812.812000", "182812.815000", "182812.819000", "182812.822000", "182812.825000", "182812.829000", "182812.832000", "182812.835000", "182812.839000", "182812.842000", "182812.845000", "182832.782000", "182832.786000", "182832.789000", "182832.792000", "182832.796000", "182832.799000", "182832.802000", "182832.806000", "182832.809000", "182832.812000", "182832.816000", "182832.819000", "182832.822000", "182832.825000", "182832.829000", "182832.832000", "182832.835000", "182832.839000", "182832.842000", "182832.845000", "182852.782000", "182852.786000", "182852.789000", "182852.792000", "182852.804000", "182852.807000", "182852.810000", "182852.814000", "182852.817000", "182852.820000", "182852.824000", "182852.827000", "182852.830000", "182852.834000", "182852.837000", "182852.840000", "182852.844000", "182852.847000", "182852.850000", "182852.854000", "182932.782000", "182932.786000", "182932.789000", "182932.793000", "182932.796000", "182932.799000", "182932.802000", "182932.806000", "182932.809000", "182932.812000", "182932.815000", "182932.819000", "182932.822000", "182932.825000", "182932.829000", "182932.832000", "182932.836000", "182932.839000", "182932.852000", "182932.855000", "182932.859000", "182932.863000", "182932.866000", "182932.869000", "182932.873000", "182932.876000", "183004.264000", "183004.268000", "183004.271000", "183004.275000", "183004.278000", "183004.281000", "183004.285000", "183004.288000", "183004.291000", "183004.295000", "183004.298000", "183004.301000", "183004.305000", "183004.308000", "183004.312000", "183004.315000", "183004.318000", "183004.322000", "183004.325000", "183004.328000", "183004.332000", "183004.335000"],
      "InstanceCreationTime": ["182712.821000", "182712.825000", "182712.828000", "182712.832000", "182712.835000", "182712.838000", "182732.783000", "182732.787000", "182732.790000", "182732.794000", "182732.797000", "182732.800000", "182732.804000", "182732.807000", "182732.810000", "182732.813000", "182732.817000", "182732.820000", "182732.823000", "182732.827000", "182732.830000", "182732.833000", "182732.836000", "182732.840000", "182732.843000", "182732.846000", "182752.783000", "182752.787000", "182752.790000", "182752.793000", "182752.796000", "182752.800000", "182752.803000", "182752.807000", "182752.810000", "182752.813000", "182752.816000", "182752.820000", "182752.823000", "182752.833000", "182752.836000", "182752.840000", "182752.843000", "182752.846000", "182752.849000", "182752.853000", "182752.856000", "182812.782000", "182812.786000", "182812.789000", "182812.792000", "182812.795000", "182812.799000", "182812.802000", "182812.806000", "182812.809000", "182812.812000", "182812.815000", "182812.819000", "182812.822000", "182812.825000", "182812.829000", "182812.832000", "182812.835000", "182812.839000", "182812.842000", "182812.845000", "182832.782000", "182832.786000", "182832.789000", "182832.792000", "182832.796000", "182832.799000", "182832.802000", "182832.806000", "182832.809000", "182832.812000", "182832.816000", "182832.819000", "182832.822000", "182832.825000", "182832.829000", "182832.832000", "182832.835000", "182832.839000", "182832.842000", "182832.845000", "182852.782000", "182852.786000", "182852.789000", "182852.792000", "182852.804000", "182852.807000", "182852.810000", "182852.814000", "182852.817000", "182852.820000", "182852.824000", "182852.827000", "182852.830000", "182852.834000", "182852.837000", "182852.840000", "182852.844000", "182852.847000", "182852.850000", "182852.854000", "182932.782000", "182932.786000", "182932.789000", "182932.793000", "182932.796000", "182932.799000", "182932.802000", "182932.806000", "182932.809000", "182932.812000", "182932.815000", "182932.819000", "182932.822000", "182932.825000", "182932.829000", "182932.832000", "182932.836000", "182932.839000", "182932.852000", "182932.855000", "182932.859000", "182932.863000", "182932.866000", "182932.869000", "182932.873000", "182932.876000", "183004.264000", "183004.268000", "183004.271000", "183004.275000", "183004.278000", "183004.281000", "183004.285000", "183004.288000", "183004.291000", "183004.295000", "183004.298000", "183004.301000", "183004.305000", "183004.308000", "183004.312000", "183004.315000", "183004.318000", "183004.322000", "183004.325000", "183004.328000", "183004.332000", "183004.335000"],
      "InstanceNumber": [1, 2, 3, 4, 5, 6, 7, 8, 9, 10, 11, 12, 13, 14, 15, 16, 17, 18, 19, 20, 21, 22, 23, 24, 25, 26, 27, 28, 29, 30, 31, 32, 33, 34, 35, 36, 37, 38, 39, 40, 41, 42, 43, 44, 45, 46, 47, 48, 49, 50, 51, 52, 53, 54, 55, 56, 57, 58, 59, 60, 61, 62, 63, 64, 65, 66, 67, 68, 69, 70, 71, 72, 73, 74, 75, 76, 77, 78, 79, 80, 81, 82, 83, 84, 85, 86, 87, 88, 89, 90, 91, 92, 93, 94, 95, 96, 97, 98, 99, 100, 101, 102, 103, 104, 105, 106, 107, 108, 109, 110, 111, 112, 113, 114, 115, 116, 117, 118, 119, 120, 121, 122, 123, 124, 125, 126, 127, 128, 129, 130, 131, 132, 133, 134, 135, 136, 137, 138, 139, 140, 141, 142, 143, 144, 145, 146, 147, 148, 149, 150, 151, 152, 153, 154, 155],
      "LargestImagePixelValue": [42285, 40617, 40756, 40461, 40583, 40182, 40352, 40888, 40059, 40336, 39981, 40347, 40465, 40321, 39992, 40528, 41165, 41355, 40466, 40252, 40305, 41214, 40487, 40122, 40770, 40292, 40728, 40057, 41385, 40607, 39720, 40097, 40423, 40996, 39900, 40062, 40043, 40464, 40423, 40076, 39766, 40998, 40061, 40365, 40094, 39952, 40568, 40095, 40274, 40023, 40946, 40323, 40282, 40248, 39687, 39723, 39490, 39800, 40571, 40022, 39806, 39862, 40661, 39771, 40133, 39638, 39428, 40243, 39538, 39344, 39899, 40509, 40647, 40299, 40852, 40862, 39695, 40261, 39613, 39905, 39966, 40110, 40450, 39606, 39941, 39949, 40090, 40059, 40327, 40052, 39757, 40062, 39462, 39780, 40828, 40654, 39490, 39999, 39992, 39139, 39607, 40718, 39876, 39620, 39707, 41739, 39811, 39612, 39838, 41457, 42032, 40248, 39403, 40793, 39902, 39746, 39391, 39786, 39629, 39469, 40600, 39610, 39556, 39815, 39768, 39469, 39460, 41525, 39508, 39682, 39536, 39156, 39551, 38816, 39548, 39360, 39189, 39544, 39079, 38942, 39112, 38694, 39479, 39006, 38603, 39411, 41178, 40336, 39284, 39090, 39110, 40095, 39612, 39871, 40050],
      "WindowCenter": [10522.0, 10473.0, 10459.0, 10447.0, 10455.0, 10458.0, 10456.0, 10460.0, 10471.0, 10478.0, 10480.0, 10489.0, 10478.0, 10476.0, 10477.0, 10467.0, 10468.0, 10464.0, 10441.0, 10429.0, 10422.0, 10449.0, 10474.0, 10464.0, 10458.0, 10432.0, 10446.0, 10442.0, 10450.0, 10452.0, 10437.0, 10433.0, 10420.0, 10433.0, 10431.0, 10438.0, 10430.0, 10438.0, 10456.0, 10443.0, 10431.0, 10449.0, 10450.0, 10448.0, 10430.0, 10419.0, 10424.0, 10438.0, 10445.0, 10431.0, 10431.0, 10436.0, 10436.0, 10422.0, 10424.0, 10425.0, 10418.0, 10415.0, 10431.0, 10440.0, 10438.0, 10430.0, 10445.0, 10443.0, 10439.0, 10420.0, 10398.0, 10416.0, 10430.0, 10434.0, 10438.0, 10435.0, 10437.0, 10429.0, 10423.0, 10431.0, 10420.0, 10417.0, 10421.0, 10429.0, 10431.0, 10423.0, 10437.0, 10441.0, 10430.0, 10421.0, 10428.0, 10419.0, 10416.0, 10419.0, 10418.0, 10424.0, 10432.0, 10440.0, 10448.0, 10453.0, 10434.0, 10422.0, 10428.0, 10417.0, 10419.0, 10441.0, 10447.0, 10441.0, 10432.0, 10470.0, 10454.0, 10453.0, 10439.0, 10432.0, 10438.0, 10423.0, 10400.0, 10413.0, 10432.0, 10454.0, 10450.0, 10440.0, 10429.0, 10409.0, 10408.0, 10405.0, 10398.0, 10410.0, 10421.0, 10410.0, 10416.0, 10439.0, 10399.0, 10404.0, 10423.0, 10422.0, 10424.0, 10402.0, 10404.0, 10397.0, 10383.0, 10401.0, 10407.0, 10409.0, 10425.0, 10431.0, 10428.0, 10429.0, 10414.0, 10410.0, 10449.0, 10457.0, 10438.0, 10414.0, 10386.0, 10385.0, 10395.0, 10398.0, 10391.0],
      "WindowWidth": [22347.0, 22220.0, 22175.0, 22143.0, 22161.0, 22170.0, 22162.0, 22167.0, 22202.0, 22215.0, 22220.0, 22240.0, 22214.0, 22204.0, 22209.0, 22185.0, 22181.0, 22176.0, 22126.0, 22096.0, 22082.0, 22139.0, 22201.0, 22180.0, 22161.0, 22104.0, 22135.0, 22128.0, 22138.0, 22148.0, 22119.0, 22107.0, 22074.0, 22103.0, 22104.0, 22115.0, 22098.0, 22119.0, 22162.0, 22135.0, 22102.0, 22139.0, 22151.0, 22142.0, 22099.0, 22071.0, 22082.0, 22120.0, 22132.0, 22099.0, 22096.0, 22114.0, 22112.0, 22082.0, 22092.0, 22092.0, 22078.0, 22067.0, 22099.0, 22124.0, 22117.0, 22098.0, 22134.0, 22135.0, 22123.0, 22078.0, 22030.0, 22070.0, 22106.0, 22114.0, 22117.0, 22112.0, 22117.0, 22099.0, 22077.0, 22097.0, 22076.0, 22069.0, 22083.0, 22098.0, 22102.0, 22087.0, 22119.0, 22129.0, 22101.0, 22081.0, 22095.0, 22076.0, 22066.0, 22075.0, 22071.0, 22082.0, 22108.0, 22124.0, 22137.0, 22153.0, 22113.0, 22083.0, 22097.0, 22075.0, 22075.0, 22123.0, 22143.0, 22126.0, 22103.0, 22185.0, 22162.0, 22158.0, 22126.0, 22100.0, 22116.0, 22092.0, 22034.0, 22058.0, 22110.0, 22163.0, 22150.0, 22125.0, 22101.0, 22051.0, 22043.0, 22043.0, 22026.0, 22052.0, 22077.0, 22055.0, 22068.0, 22118.0, 22027.0, 22037.0, 22083.0, 22084.0, 22084.0, 22036.0, 22037.0, 22023.0, 21994.0, 22032.0, 22048.0, 22053.0, 22089.0, 22110.0, 22098.0, 22101.0, 22067.0, 22054.0, 22137.0, 22160.0, 22115.0, 22067.0, 21996.0, 21990.0, 22016.0, 22023.0, 22011.0]
    },
    "slices": {}
  }
}