{
  "AcquisitionMatrixPE": 104,
  "AcquisitionNumber": 1,
  "AcquisitionTime": "18:26:12.282500",
  "BandwidthPerPixelPhaseEncode": 17.17,
  "BaseResolution": 104,
  "BodyPartExamined": "BRAIN",
  "CoilCombinationMethod": "Sum of Squares",
  "ConsistencyInfo": "N4_VE11C_LATEST_20160120",
  "ConversionSoftware": "dcm2niix",
  "ConversionSoftwareVersion": "v1.0.20211006",
  "DerivedVendorReportedEchoSpacing": 0.000560011,
  "DeviceSerialNumber": "167006",
  "DwellTime": 2.1e-06,
  "EchoTime": 0.037,
  "EchoTime1": 0.037,
  "EchoTime2": 0.001,
  "EchoTrainLength": 104,
  "EffectiveEchoSpacing": 0.000560011,
  "FlipAngle": 52,
  "HeudiconvVersion": "0.10.0",
  "ImageComments": "Unaliased MB4/PE3/LB",
  "ImageOrientationPatientDICOM": [0.998599, 0.0221848, 0.048034, -0.00278861, 0.928656, -0.370932],
  "ImageOrientationText": "Tra>Cor(-21.8)>Sag(3.0)",
  "ImageType": [
    "ORIGINAL",
    "PRIMARY",
    "P",
    "MB",
    "ND",
    "MOSAIC",
    "PHASE"
],
  "ImagingFrequency": 123.259,
  "InPlanePhaseEncodingDirectionDICOM": "COL",
  "InstitutionAddress": "Chemin Queen-Mary 4565,Montreal,District,CA,H3W 1W5",
  "InstitutionName": "IUGM",
  "InstitutionalDepartmentName": "Department",
  "MRAcquisitionType": "2D",
  "MagneticFieldStrength": 3,
  "Manufacturer": "Siemens",
  "ManufacturersModelName": "Prisma_fit",
  "MatrixCoilMode": "SENSE",
  "Modality": "MR",
  "MultibandAccelerationFactor": 4,
  "PartialFourier": 1,
  "PatientPosition": "HFS",
  "PercentPhaseFOV": 100,
  "PercentSampling": 100,
  "PhaseEncodingDirection": "j",
  "PhaseEncodingSteps": 104,
  "PhaseResolution": 1,
  "PixelBandwidth": 2290,
  "ProcedureStepDescription": "localizers^fLoc",
  "ProtocolName": "task_fLoc_run-1",
  "PulseSequenceDetails": "%CustomerSeq%\\cmrr_mbep2d_bold",
  "ReceiveCoilActiveElements": "HC1-7;NC1,2",
  "ReceiveCoilName": "HeadNeck_64",
  "ReconMatrixPE": 104,
  "RepetitionTime": 1.49,
  "SAR": 0.0523268,
  "ScanOptions": "FS",
  "ScanningSequence": "EP",
  "SequenceName": "epfid2d1_104",
  "SequenceVariant": "SK\\SS",
  "SeriesDescription": "task_fLoc_run-1",
  "SeriesNumber": 14,
  "ShimSetting": [632, -7184, -8828, 622, 67, 47, -59, -5],
  "SliceThickness": 2,
  "SliceTiming": [0, 0.785, 0.0975, 0.8825, 0.1975, 0.98, 0.295, 1.0775, 0.3925, 1.175, 0.49, 1.275, 0.5875, 1.3725, 0.6875, 0, 0.785, 0.0975, 0.8825, 0.1975, 0.98, 0.295, 1.0775, 0.3925, 1.175, 0.49, 1.275, 0.5875, 1.3725, 0.6875, 0, 0.785, 0.0975, 0.8825, 0.1975, 0.98, 0.295, 1.0775, 0.3925, 1.175, 0.49, 1.275, 0.5875, 1.3725, 0.6875, 0, 0.785, 0.0975, 0.8825, 0.1975, 0.98, 0.295, 1.0775, 0.3925, 1.175, 0.49, 1.275, 0.5875, 1.3725, 0.6875],
  "SoftwareVersions": "syngo MR E11",
  "SpacingBetweenSlices": 2,
  "StationName": "MRC35049",
  "TaskName": "fLoc",
  "TotalReadoutTime": 0.0576811,
  "TxRefAmp": 281.818,
  "WipMemBlock": "89946306-bb2d-4900-ac91-00f78c3ccdf2||Sequence: R016 ve11c/master r/e634e98; Dec 19 2017 11:00:25 by eja",
  "dcmmeta_affine": [
    [-1.9971985816955566, -0.0055772108025848866, 0.10567218065261841, 105.17627716064453],
    [-0.04436963051557541, 1.8573113679885864, -0.7405576705932617, -57.09548568725586],
    [0.09606795758008957, 0.7418646812438965, 1.8548336029052734, -69.15271759033203],
    [0.0, 0.0, 0.0, 1.0]
],
  "dcmmeta_reorient_transform": [
    [0.0, -1.0, 0.0, 103.0],
    [1.0, 0.0, 0.0, 0.0],
    [0.0, 0.0, 1.0, 0.0],
    [0.0, 0.0, 0.0, 1.0]
],
  "dcmmeta_shape": [104, 104, 60, 155],
  "dcmmeta_slice_dim": 2,
  "dcmmeta_version": 0.6,
  "global": {
    "const": {
      "AcquisitionMatrix": [104, 0, 0, 104],
      "AngioFlag": "N",
      "BitsAllocated": 16,
      "BitsStored": 16,
      "BodyPartExamined": "BRAIN",
      "Columns": 832,
      "EchoNumbers": 1,
      "EchoTime": 37.0,
      "EchoTrainLength": 104,
      "FlipAngle": 52.0,
      "HighBit": 15,
      "ImageOrientationPatient": [0.99859930449932, 0.02218481525398, 0.04803397782427, -0.0027886054911, 0.92865570733245, -0.3709323400814],
      "ImagePositionPatient": [-829.55201173146, -826.41948996281, 242.32934915639],
      "ImageType": [
        "ORIGINAL",
        "PRIMARY",
        "P",
        "MB",
        "ND",
        "MOSAIC"
],
      "ImagedNucleus": "1H",
      "ImagingFrequency": 123.258912,
      "InPlanePhaseEncodingDirection": "COL",
      "LargestImagePixelValue": 4095,
      "MRAcquisitionType": "2D",
      "MagneticFieldStrength": 3.0,
      "Manufacturer": "SIEMENS",
      "ManufacturerModelName": "Prisma_fit",
      "Modality": "MR",
      "NumberOfAverages": 1.0,
      "NumberOfPhaseEncodingSteps": 104,
      "PercentPhaseFieldOfView": 100.0,
      "PercentSampling": 100.0,
      "PerformedProcedureStepStartTime": "181933.348000",
      "PhotometricInterpretation": "MONOCHROME2",
      "PixelBandwidth": 2290.0,
      "PixelRepresentation": 0,
      "PixelSpacing": [2.0, 2.0],
      "ProtocolName": "task_fLoc_run-1",
      "RepetitionTime": 1490.0,
      "RescaleIntercept": -4096.0,
      "RescaleSlope": 2.0,
      "RescaleType": "US",
      "Rows": 832,
      "SAR": 0.05232683257019,
      "SamplesPerPixel": 1,
      "ScanOptions": "FS",
      "ScanningSequence": "EP",
      "SequenceName": "epfid2d1_104",
      "SequenceVariant": [
        "SK",
        "SS"
],
      "SeriesDescription": "task_fLoc_run-1",
      "SeriesNumber": 14,
      "SeriesTime": "182712.870000",
      "SliceLocation": -37.435042180484,
      "SliceThickness": 2.0,
      "SmallestImagePixelValue": 0,
      "SoftwareVersions": "syngo MR E11",
      "SpacingBetweenSlices": 1.999999957879,
      "SpecificCharacterSet": "ISO_IR 100",
      "StudyID": "1",
      "StudyTime": "181933.246000",
      "TransmitCoilName": "Body",
      "VariableFlipAngleFlag": "N",
      "WindowCenterWidthExplanation": "Algo1",
      "dBdt": 0.0},
    "slices": {}
  },
  "time": {
    "samples": {
      "AcquisitionNumber": [1, 2, 3, 4, 5, 6, 7, 8, 9, 10, 11, 12, 13, 14, 15, 16, 17, 18, 19, 20, 21, 22, 23, 24, 25, 26, 27, 28, 29, 30, 31, 32, 33, 34, 35, 36, 37, 38, 39, 40, 41, 42, 43, 44, 45, 46, 47, 48, 49, 50, 51, 52, 53, 54, 55, 56, 57, 58, 59, 60, 61, 62, 63, 64, 65, 66, 67, 68, 69, 70, 71, 72, 73, 74, 75, 76, 77, 78, 79, 80, 81, 82, 83, 84, 85, 86, 87, 88, 89, 90, 91, 92, 93, 94, 95, 96, 97, 98, 99, 100, 101, 102, 103, 104, 105, 106, 107, 108, 109, 110, 111, 112, 113, 114, 115, 116, 117, 118, 119, 120, 121, 122, 123, 124, 125, 126, 127, 128, 129, 130, 131, 132, 133, 134, 135, 136, 137, 138, 139, 140, 141, 142, 143, 144, 145, 146, 147, 148, 149, 150, 151, 152, 153, 154, 155],
      "AcquisitionTime": ["182612.282500", "182613.772500", "182615.262500", "182616.752500", "182618.242500", "182619.732500", "182621.222500", "182622.712500", "182624.202500", "182625.692500", "182627.182500", "182628.672500", "182630.162500", "182631.652500", "182633.142500", "182634.632500", "182636.122500", "182637.612500", "182639.102500", "182640.592500", "182642.082500", "182643.572500", "182645.062500", "182646.552500", "182648.042500", "182649.532500", "182651.022500", "182652.512500", "182654.002500", "182655.492500", "182656.982500", "182658.472500", "182659.962500", "182701.452500", "182702.942500", "182704.432500", "182705.922500", "182707.412500", "182708.902500", "182710.392500", "182711.882500", "182713.372500", "182714.862500", "182716.352500", "182717.842500", "182719.332500", "182720.822500", "182722.312500", "182723.802500", "182725.292500", "182726.782500", "182728.272500", "182729.762500", "182731.252500", "182732.742500", "182734.232500", "182735.722500", "182737.212500", "182738.702500", "182740.192500", "182741.682500", "182743.172500", "182744.662500", "182746.152500", "182747.642500", "182749.132500", "182750.622500", "182752.112500", "182753.602500", "182755.092500", "182756.582500", "182758.072500", "182759.562500", "182801.052500", "182802.542500", "182804.032500", "182805.522500", "182807.012500", "182808.502500", "182809.992500", "182811.482500", "182812.972500", "182814.462500", "182815.952500", "182817.442500", "182818.932500", "182820.422500", "182821.912500", "182823.402500", "182824.892500", "182826.382500", "182827.872500", "182829.362500", "182830.852500", "182832.342500", "182833.832500", "182835.322500", "182836.812500", "182838.302500", "182839.792500", "182841.282500", "182842.772500", "182844.262500", "182845.752500", "182847.242500", "182848.732500", "182850.222500", "182851.712500", "182853.202500", "182854.692500", "182856.182500", "182857.672500", "182859.162500", "182900.652500", "182902.142500", "182903.632500", "182905.122500", "182906.612500", "182908.102500", "182909.592500", "182911.082500", "182912.572500", "182914.062500", "182915.552500", "182917.042500", "182918.532500", "182920.022500", "182921.512500", "182923.002500", "182924.492500", "182925.982500", "182927.472500", "182928.962500", "182930.452500", "182931.942500", "182933.432500", "182934.922500", "182936.412500", "182937.902500", "182939.392500", "182940.882500", "182942.372500", "182943.862500", "182945.352500", "182946.842500", "182948.332500", "182949.822500", "182951.312500", "182952.802500", "182954.292500", "182955.782500", "182957.272500", "182958.762500", "183000.252500", "183001.742500"],
      "ContentTime": ["182712.872000", "182712.903000", "182712.905000", "182712.908000", "182712.917000", "182712.920000", "182732.911000", "182732.914000", "182732.916000", "182732.919000", "182732.921000", "182732.924000", "182732.926000", "182732.929000", "182732.931000", "182732.934000", "182732.937000", "182732.939000", "182732.942000", "182732.944000", "182732.947000", "182732.949000", "182732.952000", "182732.954000", "182732.965000", "182732.968000", "182752.914000", "182752.917000", "182752.920000", "182752.922000", "182752.925000", "182752.927000", "182752.930000", "182752.932000", "182752.935000", "182752.937000", "182752.940000", "182752.942000", "182752.944000", "182752.947000", "182752.950000", "182752.953000", "182752.955000", "182752.958000", "182752.960000", "182752.963000", "182752.965000", "182812.884000", "182812.887000", "182812.889000", "182812.892000", "182812.894000", "182812.897000", "182812.899000", "182812.902000", "182812.904000", "182812.907000", "182812.909000", "182812.912000", "182812.914000", "182812.917000", "182812.919000", "182812.922000", "182812.924000", "182812.927000", "182812.929000", "182812.932000", "182832.895000", "182832.897000", "182832.900000", "182832.902000", "182832.905000", "182832.907000", "182832.910000", "182832.912000", "182832.915000", "182832.917000", "182832.920000", "182832.922000", "182832.925000", "182832.927000", "182832.930000", "182832.932000", "182832.935000", "182832.937000", "182832.940000", "182832.942000", "182852.905000", "182852.908000", "182852.910000", "182852.913000", "182852.915000", "182852.917000", "182852.920000", "182852.922000", "182852.925000", "182852.927000", "182852.930000", "182852.932000", "182852.935000", "182852.937000", "182852.940000", "182852.943000", "182852.945000", "182852.948000", "182852.950000", "182852.952000", "182932.936000", "182932.939000", "182932.942000", "182932.944000", "182932.946000", "182932.949000", "182932.952000", "182932.954000", "182932.957000", "182932.959000", "182932.961000", "182932.964000", "182932.966000", "182932.969000", "182932.971000", "182932.974000", "182932.976000", "182932.979000", "182932.981000", "182932.984000", "182932.986000", "182932.989000", "182932.991000", "182932.994000", "182932.996000", "182932.999000", "183004.396000", "183004.399000", "183004.402000", "183004.404000", "183004.407000", "183004.409000", "183004.412000", "183004.414000", "183004.417000", "183004.419000", "183004.422000", "183004.424000", "183004.427000", "183004.429000", "183004.432000", "183004.434000", "183004.437000", "183004.439000", "183004.442000", "183004.445000", "183004.447000", "183004.450000"],
      "InstanceCreationTime": ["182712.872000", "182712.903000", "182712.905000", "182712.908000", "182712.917000", "182712.920000", "182732.911000", "182732.914000", "182732.916000", "182732.919000", "182732.921000", "182732.924000", "182732.926000", "182732.929000", "182732.931000", "182732.934000", "182732.937000", "182732.939000", "182732.942000", "182732.944000", "182732.947000", "182732.949000", "182732.952000", "182732.954000", "182732.965000", "182732.968000", "182752.914000", "182752.917000", "182752.920000", "182752.922000", "182752.925000", "182752.927000", "182752.930000", "182752.932000", "182752.935000", "182752.937000", "182752.940000", "182752.942000", "182752.944000", "182752.947000", "182752.950000", "182752.953000", "182752.955000", "182752.958000", "182752.960000", "182752.963000", "182752.965000", "182812.884000", "182812.887000", "182812.889000", "182812.892000", "182812.894000", "182812.897000", "182812.899000", "182812.902000", "182812.904000", "182812.907000", "182812.909000", "182812.912000", "182812.914000", "182812.917000", "182812.919000", "182812.922000", "182812.924000", "182812.927000", "182812.929000", "182812.932000", "182832.895000", "182832.897000", "182832.900000", "182832.902000", "182832.905000", "182832.907000", "182832.910000", "182832.912000", "182832.915000", "182832.917000", "182832.920000", "182832.922000", "182832.925000", "182832.927000", "182832.930000", "182832.932000", "182832.935000", "182832.937000", "182832.940000", "182832.942000", "182852.905000", "182852.908000", "182852.910000", "182852.913000", "182852.915000", "182852.917000", "182852.920000", "182852.922000", "182852.925000", "182852.927000", "182852.930000", "182852.932000", "182852.935000", "182852.937000", "182852.940000", "182852.943000", "182852.945000", "182852.948000", "182852.950000", "182852.952000", "182932.936000", "182932.939000", "182932.942000", "182932.944000", "182932.946000", "182932.949000", "182932.952000", "182932.954000", "182932.957000", "182932.959000", "182932.961000", "182932.964000", "182932.966000", "182932.969000", "182932.971000", "182932.974000", "182932.976000", "182932.979000", "182932.981000", "182932.984000", "182932.986000", "182932.989000", "182932.991000", "182932.994000", "182932.996000", "182932.999000", "183004.396000", "183004.399000", "183004.402000", "183004.404000", "183004.407000", "183004.409000", "183004.412000", "183004.414000", "183004.417000", "183004.419000", "183004.422000", "183004.424000", "183004.427000", "183004.429000", "183004.432000", "183004.434000", "183004.437000", "183004.439000", "183004.442000", "183004.445000", "183004.447000", "183004.450000"],
      "InstanceNumber": [1, 2, 3, 4, 5, 6, 7, 8, 9, 10, 11, 12, 13, 14, 15, 16, 17, 18, 19, 20, 21, 22, 23, 24, 25, 26, 27, 28, 29, 30, 31, 32, 33, 34, 35, 36, 37, 38, 39, 40, 41, 42, 43, 44, 45, 46, 47, 48, 49, 50, 51, 52, 53, 54, 55, 56, 57, 58, 59, 60, 61, 62, 63, 64, 65, 66, 67, 68, 69, 70, 71, 72, 73, 74, 75, 76, 77, 78, 79, 80, 81, 82, 83, 84, 85, 86, 87, 88, 89, 90, 91, 92, 93, 94, 95, 96, 97, 98, 99, 100, 101, 102, 103, 104, 105, 106, 107, 108, 109, 110, 111, 112, 113, 114, 115, 116, 117, 118, 119, 120, 121, 122, 123, 124, 125, 126, 127, 128, 129, 130, 131, 132, 133, 134, 135, 136, 137, 138, 139, 140, 141, 142, 143, 144, 145, 146, 147, 148, 149, 150, 151, 152, 153, 154, 155],
      "WindowCenter": [4788.0, 4788.0, 4792.0, 4788.0, 4790.0, 4810.0, 4788.0, 4788.0, 4788.0, 4790.0, 4788.0, 4792.0, 4816.0, 4812.0, 4790.0, 4814.0, 4788.0, 4788.0, 4788.0, 4788.0, 4790.0, 4788.0, 4788.0, 4812.0, 4786.0, 4790.0, 4788.0, 4812.0, 4790.0, 4812.0, 4810.0, 4792.0, 4814.0, 4788.0, 4788.0, 4788.0, 4792.0, 4788.0, 4810.0, 4790.0, 4788.0, 4788.0, 4814.0, 4790.0, 4788.0, 4788.0, 4790.0, 4810.0, 4788.0, 4788.0, 4786.0, 4788.0, 4792.0, 4790.0, 4812.0, 4812.0, 4812.0, 4788.0, 4790.0, 4788.0, 4812.0, 4788.0, 4790.0, 4788.0, 4788.0, 4792.0, 4788.0, 4786.0, 4786.0, 4812.0, 4792.0, 4788.0, 4812.0, 4788.0, 4790.0, 4788.0, 4812.0, 4792.0, 4790.0, 4790.0, 4790.0, 4788.0, 4792.0, 4812.0, 4790.0, 4812.0, 4790.0, 4786.0, 4788.0, 4814.0, 4790.0, 4810.0, 4788.0, 4812.0, 4792.0, 4790.0, 4790.0, 4788.0, 4812.0, 4812.0, 4790.0, 4788.0, 4788.0, 4788.0, 4790.0, 4790.0, 4788.0, 4790.0, 4792.0, 4790.0, 4788.0, 4790.0, 4812.0, 4790.0, 4790.0, 4792.0, 4790.0, 4788.0, 4812.0, 4788.0, 4812.0, 4788.0, 4788.0, 4812.0, 4788.0, 4792.0, 4814.0, 4786.0, 4814.0, 4812.0, 4812.0, 4810.0, 4790.0, 4812.0, 4816.0, 4812.0, 4814.0, 4788.0, 4792.0, 4790.0, 4814.0, 4794.0, 4814.0, 4790.0, 4790.0, 4792.0, 4788.0, 4810.0, 4812.0, 4790.0, 4814.0, 4790.0, 4810.0, 4812.0, 4812.0],
      "WindowWidth": [18576.0, 18574.0, 18574.0, 18570.0, 18578.0, 18608.0, 18578.0, 18578.0, 18576.0, 18578.0, 18578.0, 18578.0, 18610.0, 18608.0, 18570.0, 18596.0, 18574.0, 18576.0, 18580.0, 18578.0, 18572.0, 18574.0, 18576.0, 18612.0, 18570.0, 18576.0, 18574.0, 18604.0, 18578.0, 18612.0, 18610.0, 18576.0, 18606.0, 18576.0, 18576.0, 18576.0, 18574.0, 18574.0, 18608.0, 18574.0, 18570.0, 18574.0, 18612.0, 18578.0, 18576.0, 18574.0, 18574.0, 18602.0, 18576.0, 18572.0, 18568.0, 18574.0, 18578.0, 18574.0, 18608.0, 18606.0, 18608.0, 18572.0, 18580.0, 18578.0, 18602.0, 18570.0, 18574.0, 18574.0, 18576.0, 18574.0, 18570.0, 18572.0, 18576.0, 18608.0, 18570.0, 18576.0, 18606.0, 18568.0, 18572.0, 18574.0, 18604.0, 18576.0, 18578.0, 18578.0, 18572.0, 18568.0, 18576.0, 18606.0, 18570.0, 18606.0, 18576.0, 18568.0, 18570.0, 18610.0, 18570.0, 18606.0, 18572.0, 18596.0, 18570.0, 18576.0, 18576.0, 18574.0, 18606.0, 18600.0, 18568.0, 18572.0, 18574.0, 18570.0, 18572.0, 18574.0, 18580.0, 18574.0, 18568.0, 18572.0, 18572.0, 18578.0, 18602.0, 18576.0, 18574.0, 18572.0, 18568.0, 18576.0, 18600.0, 18566.0, 18604.0, 18572.0, 18576.0, 18608.0, 18568.0, 18574.0, 18608.0, 18570.0, 18598.0, 18600.0, 18604.0, 18604.0, 18572.0, 18604.0, 18608.0, 18600.0, 18602.0, 18572.0, 18572.0, 18568.0, 18606.0, 18572.0, 18604.0, 18576.0, 18568.0, 18566.0, 18570.0, 18602.0, 18606.0, 18576.0, 18598.0, 18570.0, 18606.0, 18606.0, 18598.0]
    },
    "slices": {}
  }
}