{
  "AcquisitionMatrixPE": 104,
  "AcquisitionNumber": 1,
  "AcquisitionTime": "18:31:38.115000",
  "BandwidthPerPixelPhaseEncode": 17.17,
  "BaseResolution": 104,
  "BodyPartExamined": "BRAIN",
  "CoilCombinationMethod": "Sum of Squares",
  "ConsistencyInfo": "N4_VE11C_LATEST_20160120",
  "ConversionSoftware": "dcm2niix",
  "ConversionSoftwareVersion": "v1.0.20211006",
  "DerivedVendorReportedEchoSpacing": 0.000560011,
  "DeviceSerialNumber": "167006",
  "DwellTime": 2.1e-06,
  "EchoTime": 0.037,
  "EchoTrainLength": 104,
  "EffectiveEchoSpacing": 0.000560011,
  "FlipAngle": 52,
  "HeudiconvVersion": "0.10.0",
  "ImageComments": "Unaliased MB4/PE3/LB",
  "ImageOrientationPatientDICOM": [0.998599, 0.0221848, 0.048034, -0.00278861, 0.928656, -0.370932],
  "ImageOrientationText": "Tra>Cor(-21.8)>Sag(3.0)",
  "ImageType": [
    "ORIGINAL",
    "PRIMARY",
    "M",
    "MB",
    "ND",
    "MOSAIC"
],
  "ImagingFrequency": 123.259,
  "InPlanePhaseEncodingDirectionDICOM": "COL",
  "InstitutionAddress": "Chemin Queen-Mary 4565,Montreal,District,CA,H3W 1W5",
  "InstitutionName": "IUGM",
  "InstitutionalDepartmentName": "Department",
  "MRAcquisitionType": "2D",
  "MagneticFieldStrength": 3,
  "Manufacturer": "Siemens",
  "ManufacturersModelName": "Prisma_fit",
  "MatrixCoilMode": "SENSE",
  "Modality": "MR",
  "MultibandAccelerationFactor": 4,
  "PartialFourier": 1,
  "PatientPosition": "HFS",
  "PercentPhaseFOV": 100,
  "PercentSampling": 100,
  "PhaseEncodingDirection": "j",
  "PhaseEncodingSteps": 104,
  "PhaseResolution": 1,
  "PixelBandwidth": 2290,
  "ProcedureStepDescription": "localizers^fLoc",
  "ProtocolName": "task_fLoc_run-2",
  "PulseSequenceDetails": "%CustomerSeq%\\cmrr_mbep2d_bold",
  "ReceiveCoilActiveElements": "HC1-7;NC1,2",
  "ReceiveCoilName": "HeadNeck_64",
  "ReconMatrixPE": 104,
  "RepetitionTime": 1.49,
  "SAR": 0.0523268,
  "ScanOptions": "FS",
  "ScanningSequence": "EP",
  "SequenceName": "epfid2d1_104",
  "SequenceVariant": "SK\\SS",
  "SeriesDescription": "task_fLoc_run-2",
  "SeriesNumber": 16,
  "ShimSetting": [632, -7184, -8828, 622, 67, 47, -59, -5],
  "SliceThickness": 2,
  "SliceTiming": [0, 0.7825, 0.0975, 0.88, 0.195, 0.98, 0.2925, 1.0775, 0.39, 1.175, 0.49, 1.2725, 0.5875, 1.37, 0.685, 0, 0.7825, 0.0975, 0.88, 0.195, 0.98, 0.2925, 1.0775, 0.39, 1.175, 0.49, 1.2725, 0.5875, 1.37, 0.685, 0, 0.7825, 0.0975, 0.88, 0.195, 0.98, 0.2925, 1.0775, 0.39, 1.175, 0.49, 1.2725, 0.5875, 1.37, 0.685, 0, 0.7825, 0.0975, 0.88, 0.195, 0.98, 0.2925, 1.0775, 0.39, 1.175, 0.49, 1.2725, 0.5875, 1.37, 0.685],
  "SoftwareVersions": "syngo MR E11",
  "SpacingBetweenSlices": 2,
  "StationName": "MRC35049",
  "TaskName": "fLoc",
  "TotalReadoutTime": 0.0576811,
  "TxRefAmp": 281.818,
  "WipMemBlock": "949d097b-d2da-47f0-a083-aee759de3864||Sequence: R016 ve11c/master r/e634e98; Dec 19 2017 11:00:25 by eja",
  "dcmmeta_affine": [
    [-1.9971985816955566, -0.0055772108025848866, 0.10567218065261841, 105.17627716064453],
    [-0.04436963051557541, 1.8573113679885864, -0.7405576705932617, -57.09548568725586],
    [0.09606795758008957, 0.7418646812438965, 1.8548336029052734, -69.15271759033203],
    [0.0, 0.0, 0.0, 1.0]
],
  "dcmmeta_reorient_transform": [
    [0.0, -1.0, 0.0, 103.0],
    [1.0, 0.0, 0.0, 0.0],
    [0.0, 0.0, 1.0, 0.0],
    [0.0, 0.0, 0.0, 1.0]
],
  "dcmmeta_shape": [104, 104, 60, 155],
  "dcmmeta_slice_dim": 2,
  "dcmmeta_version": 0.6,
  "global": {
    "const": {
      "AcquisitionMatrix": [104, 0, 0, 104],
      "AngioFlag": "N",
      "BitsAllocated": 16,
      "BitsStored": 16,
      "BodyPartExamined": "BRAIN",
      "Columns": 832,
      "EchoNumbers": 1,
      "EchoTime": 37.0,
      "EchoTrainLength": 104,
      "FlipAngle": 52.0,
      "HighBit": 15,
      "ImageOrientationPatient": [0.99859930449932, 0.02218481525398, 0.04803397782427, -0.0027886054911, 0.92865570733245, -0.3709323400814],
      "ImagePositionPatient": [-829.55201173146, -826.41948996281, 242.32934915639],
      "ImageType": [
        "ORIGINAL",
        "PRIMARY",
        "M",
        "MB",
        "ND",
        "MOSAIC"
],
      "ImagedNucleus": "1H",
      "ImagingFrequency": 123.258915,
      "InPlanePhaseEncodingDirection": "COL",
      "MRAcquisitionType": "2D",
      "MagneticFieldStrength": 3.0,
      "Manufacturer": "SIEMENS",
      "ManufacturerModelName": "Prisma_fit",
      "Modality": "MR",
      "NumberOfAverages": 1.0,
      "NumberOfPhaseEncodingSteps": 104,
      "PercentPhaseFieldOfView": 100.0,
      "PercentSampling": 100.0,
      "PerformedProcedureStepStartTime": "181933.348000",
      "PhotometricInterpretation": "MONOCHROME2",
      "PixelBandwidth": 2290.0,
      "PixelRepresentation": 0,
      "PixelSpacing": [2.0, 2.0],
      "ProtocolName": "task_fLoc_run-2",
      "RepetitionTime": 1490.0,
      "Rows": 832,
      "SAR": 0.05232683257019,
      "SamplesPerPixel": 1,
      "ScanOptions": "FS",
      "ScanningSequence": "EP",
      "SequenceName": "epfid2d1_104",
      "SequenceVariant": [
        "SK",
        "SS"
],
      "SeriesDescription": "task_fLoc_run-2",
      "SeriesNumber": 16,
      "SeriesTime": "183307.300000",
      "SliceLocation": -37.435042180484,
      "SliceThickness": 2.0,
      "SmallestImagePixelValue": 0,
      "SoftwareVersions": "syngo MR E11",
      "SpacingBetweenSlices": 1.999999957879,
      "SpecificCharacterSet": "ISO_IR 100",
      "StudyID": "1",
      "StudyTime": "181933.246000",
      "TransmitCoilName": "Body",
      "VariableFlipAngleFlag": "N",
      "WindowCenterWidthExplanation": "Algo1",
      "dBdt": 0.0},
    "slices": {}
  },
  "time": {
    "samples": {
      "AcquisitionNumber": [1, 2, 3, 4, 5, 6, 7, 8, 9, 10, 11, 12, 13, 14, 15, 16, 17, 18, 19, 20, 21, 22, 23, 24, 25, 26, 27, 28, 29, 30, 31, 32, 33, 34, 35, 36, 37, 38, 39, 40, 41, 42, 43, 44, 45, 46, 47, 48, 49, 50, 51, 52, 53, 54, 55, 56, 57, 58, 59, 60, 61, 62, 63, 64, 65, 66, 67, 68, 69, 70, 71, 72, 73, 74, 75, 76, 77, 78, 79, 80, 81, 82, 83, 84, 85, 86, 87, 88, 89, 90, 91, 92, 93, 94, 95, 96, 97, 98, 99, 100, 101, 102, 103, 104, 105, 106, 107, 108, 109, 110, 111, 112, 113, 114, 115, 116, 117, 118, 119, 120, 121, 122, 123, 124, 125, 126, 127, 128, 129, 130, 131, 132, 133, 134, 135, 136, 137, 138, 139, 140, 141, 142, 143, 144, 145, 146, 147, 148, 149, 150, 151, 152, 153, 154, 155],
      "AcquisitionTime": ["183138.115000", "183139.605000", "183141.095000", "183142.585000", "183144.075000", "183145.565000", "183147.055000", "183148.545000", "183150.035000", "183151.525000", "183153.015000", "183154.505000", "183155.995000", "183157.485000", "183158.975000", "183200.465000", "183201.955000", "183203.445000", "183204.935000", "183206.425000", "183207.915000", "183209.405000", "183210.895000", "183212.385000", "183213.875000", "183215.365000", "183216.855000", "183218.345000", "183219.835000", "183221.325000", "183222.815000", "183224.305000", "183225.795000", "183227.285000", "183228.775000", "183230.265000", "183231.755000", "183233.245000", "183234.735000", "183236.225000", "183237.715000", "183239.205000", "183240.695000", "183242.185000", "183243.675000", "183245.165000", "183246.655000", "183248.145000", "183249.635000", "183251.125000", "183252.615000", "183254.105000", "183255.595000", "183257.085000", "183258.575000", "183300.065000", "183301.555000", "183303.045000", "183304.535000", "183306.025000", "183307.515000", "183309.005000", "183310.495000", "183311.985000", "183313.475000", "183314.965000", "183316.455000", "183317.945000", "183319.435000", "183320.925000", "183322.415000", "183323.905000", "183325.395000", "183326.885000", "183328.375000", "183329.865000", "183331.355000", "183332.845000", "183334.335000", "183335.825000", "183337.315000", "183338.805000", "183340.295000", "183341.785000", "183343.275000", "183344.765000", "183346.255000", "183347.745000", "183349.235000", "183350.725000", "183352.215000", "183353.705000", "183355.195000", "183356.685000", "183358.175000", "183359.665000", "183401.155000", "183402.645000", "183404.135000", "183405.625000", "183407.115000", "183408.605000", "183410.095000", "183411.585000", "183413.075000", "183414.565000", "183416.055000", "183417.545000", "183419.035000", "183420.525000", "183422.015000", "183423.505000", "183424.995000", "183426.485000", "183427.975000", "183429.465000", "183430.955000", "183432.445000", "183433.935000", "183435.425000", "183436.915000", "183438.405000", "183439.895000", "183441.385000", "183442.875000", "183444.365000", "183445.855000", "183447.345000", "183448.835000", "183450.325000", "183451.815000", "183453.305000", "183454.795000", "183456.285000", "183457.775000", "183459.265000", "183500.755000", "183502.245000", "183503.735000", "183505.225000", "183506.715000", "183508.205000", "183509.695000", "183511.185000", "183512.675000", "183514.165000", "183515.655000", "183517.145000", "183518.635000", "183520.125000", "183521.615000", "183523.105000", "183524.595000", "183526.085000", "183527.575000"],
      "ContentTime": ["183307.303000", "183307.307000", "183307.311000", "183307.314000", "183307.318000", "183307.321000", "183307.325000", "183307.328000", "183307.331000", "183307.334000", "183307.338000", "183307.341000", "183307.344000", "183307.348000", "183307.351000", "183307.354000", "183307.358000", "183307.361000", "183307.364000", "183307.367000", "183307.371000", "183307.374000", "183307.377000", "183307.390000", "183307.393000", "183307.396000", "183307.399000", "183307.403000", "183307.406000", "183307.409000", "183307.413000", "183307.416000", "183307.419000", "183307.423000", "183327.266000", "183327.270000", "183327.273000", "183327.276000", "183327.280000", "183327.283000", "183327.286000", "183327.290000", "183327.293000", "183327.296000", "183327.300000", "183327.303000", "183327.306000", "183327.310000", "183327.313000", "183327.316000", "183327.319000", "183327.323000", "183327.326000", "183327.329000", "183347.266000", "183347.270000", "183347.273000", "183347.277000", "183347.280000", "183347.283000", "183347.287000", "183347.290000", "183347.293000", "183347.297000", "183347.300000", "183347.303000", "183347.307000", "183347.310000", "183347.313000", "183347.317000", "183347.320000", "183347.323000", "183347.326000", "183347.330000", "183407.266000", "183407.270000", "183407.273000", "183407.277000", "183407.280000", "183407.284000", "183407.287000", "183407.290000", "183407.294000", "183407.297000", "183407.301000", "183407.304000", "183407.307000", "183407.311000", "183407.314000", "183407.317000", "183407.321000", "183407.324000", "183407.327000", "183407.330000", "183447.265000", "183447.269000", "183447.272000", "183447.276000", "183447.279000", "183447.282000", "183447.286000", "183447.289000", "183447.293000", "183447.296000", "183447.299000", "183447.302000", "183447.306000", "183447.309000", "183447.312000", "183447.316000", "183447.319000", "183447.322000", "183447.326000", "183447.329000", "183447.332000", "183447.336000", "183447.339000", "183447.342000", "183447.346000", "183447.349000", "183447.352000", "183447.356000", "183447.359000", "183447.362000", "183447.366000", "183447.369000", "183527.266000", "183527.270000", "183527.273000", "183527.276000", "183527.280000", "183527.283000", "183527.286000", "183527.290000", "183527.293000", "183527.296000", "183527.300000", "183527.303000", "183527.306000", "183527.310000", "183527.313000", "183527.316000", "183527.320000", "183527.323000", "183527.326000", "183527.329000", "183527.333000", "183527.336000", "183527.339000", "183527.343000", "183527.346000", "183527.349000", "183527.352000", "183529.355000", "183529.358000"],
      "InstanceCreationTime": ["183307.303000", "183307.307000", "183307.311000", "183307.314000", "183307.318000", "183307.321000", "183307.325000", "183307.328000", "183307.331000", "183307.334000", "183307.338000", "183307.341000", "183307.344000", "183307.348000", "183307.351000", "183307.354000", "183307.358000", "183307.361000", "183307.364000", "183307.367000", "183307.371000", "183307.374000", "183307.377000", "183307.390000", "183307.393000", "183307.396000", "183307.399000", "183307.403000", "183307.406000", "183307.409000", "183307.413000", "183307.416000", "183307.419000", "183307.423000", "183327.266000", "183327.270000", "183327.273000", "183327.276000", "183327.280000", "183327.283000", "183327.286000", "183327.290000", "183327.293000", "183327.296000", "183327.300000", "183327.303000", "183327.306000", "183327.310000", "183327.313000", "183327.316000", "183327.319000", "183327.323000", "183327.326000", "183327.329000", "183347.266000", "183347.270000", "183347.273000", "183347.277000", "183347.280000", "183347.283000", "183347.287000", "183347.290000", "183347.293000", "183347.297000", "183347.300000", "183347.303000", "183347.307000", "183347.310000", "183347.313000", "183347.317000", "183347.320000", "183347.323000", "183347.326000", "183347.330000", "183407.266000", "183407.270000", "183407.273000", "183407.277000", "183407.280000", "183407.284000", "183407.287000", "183407.290000", "183407.294000", "183407.297000", "183407.301000", "183407.304000", "183407.307000", "183407.311000", "183407.314000", "183407.317000", "183407.321000", "183407.324000", "183407.327000", "183407.330000", "183447.265000", "183447.269000", "183447.272000", "183447.276000", "183447.279000", "183447.282000", "183447.286000", "183447.289000", "183447.293000", "183447.296000", "183447.299000", "183447.302000", "183447.306000", "183447.309000", "183447.312000", "183447.316000", "183447.319000", "183447.322000", "183447.326000", "183447.329000", "183447.332000", "183447.336000", "183447.339000", "183447.342000", "183447.346000", "183447.349000", "183447.352000", "183447.356000", "183447.359000", "183447.362000", "183447.366000", "183447.369000", "183527.266000", "183527.270000", "183527.273000", "183527.276000", "183527.280000", "183527.283000", "183527.286000", "183527.290000", "183527.293000", "183527.296000", "183527.300000", "183527.303000", "183527.306000", "183527.310000", "183527.313000", "183527.316000", "183527.320000", "183527.323000", "183527.326000", "183527.329000", "183527.333000", "183527.336000", "183527.339000", "183527.343000", "183527.346000", "183527.349000", "183527.352000", "183529.355000", "183529.358000"],
      "InstanceNumber": [1, 2, 3, 4, 5, 6, 7, 8, 9, 10, 11, 12, 13, 14, 15, 16, 17, 18, 19, 20, 21, 22, 23, 24, 25, 26, 27, 28, 29, 30, 31, 32, 33, 34, 35, 36, 37, 38, 39, 40, 41, 42, 43, 44, 45, 46, 47, 48, 49, 50, 51, 52, 53, 54, 55, 56, 57, 58, 59, 60, 61, 62, 63, 64, 65, 66, 67, 68, 69, 70, 71, 72, 73, 74, 75, 76, 77, 78, 79, 80, 81, 82, 83, 84, 85, 86, 87, 88, 89, 90, 91, 92, 93, 94, 95, 96, 97, 98, 99, 100, 101, 102, 103, 104, 105, 106, 107, 108, 109, 110, 111, 112, 113, 114, 115, 116, 117, 118, 119, 120, 121, 122, 123, 124, 125, 126, 127, 128, 129, 130, 131, 132, 133, 134, 135, 136, 137, 138, 139, 140, 141, 142, 143, 144, 145, 146, 147, 148, 149, 150, 151, 152, 153, 154, 155],
      "LargestImagePixelValue": [42194, 40499, 40415, 41525, 39795, 39514, 39387, 39331, 40679, 40625, 38973, 38795, 39812, 39341, 38754, 39209, 39865, 39699, 39695, 39029, 39588, 39845, 38318, 39480, 39780, 38632, 38263, 39319, 39134, 39152, 38762, 39589, 39096, 38630, 39120, 38629, 39233, 39200, 40034, 40288, 38671, 38822, 38947, 38509, 38739, 38970, 38344, 39373, 38096, 38477, 37892, 38080, 38654, 38180, 38164, 39065, 39589, 39247, 38063, 37669, 37946, 38657, 38424, 38087, 38298, 38367, 38259, 38148, 38732, 38223, 38037, 38257, 38595, 38281, 37714, 37868, 37824, 38106, 38451, 38666, 38640, 39786, 37743, 38035, 38002, 38053, 38360, 37961, 38296, 38029, 38307, 38196, 38117, 38574, 37577, 38415, 38303, 38177, 38317, 38535, 38256, 38165, 37604, 38174, 37858, 37827, 38218, 37926, 38230, 38639, 37757, 37980, 37867, 37831, 39948, 37838, 38161, 37952, 38195, 37542, 38162, 38816, 38172, 38346, 38317, 38296, 37684, 38700, 38051, 38028, 38801, 39085, 39601, 38332, 38372, 38236, 38679, 39792, 39054, 38816, 38883, 39457, 39022, 39202, 38750, 39315, 38327, 38606, 38837, 39342, 38838, 39637, 38644, 38559, 39682],
      "WindowCenter": [10519.0, 10462.0, 10448.0, 10466.0, 10454.0, 10438.0, 10427.0, 10415.0, 10437.0, 10450.0, 10436.0, 10435.0, 10438.0, 10441.0, 10428.0, 10429.0, 10427.0, 10431.0, 10440.0, 10427.0, 10428.0, 10435.0, 10413.0, 10421.0, 10434.0, 10425.0, 10410.0, 10410.0, 10403.0, 10404.0, 10400.0, 10418.0, 10432.0, 10426.0, 10413.0, 10399.0, 10386.0, 10392.0, 10432.0, 10453.0, 10420.0, 10395.0, 10387.0, 10362.0, 10364.0, 10389.0, 10400.0, 10413.0, 10384.0, 10383.0, 10359.0, 10355.0, 10366.0, 10373.0, 10402.0, 10425.0, 10422.0, 10405.0, 10376.0, 10391.0, 10418.0, 10424.0, 10408.0, 10403.0, 10400.0, 10383.0, 10378.0, 10391.0, 10400.0, 10393.0, 10392.0, 10394.0, 10389.0, 10366.0, 10365.0, 10366.0, 10359.0, 10378.0, 10390.0, 10407.0, 10409.0, 10411.0, 10406.0, 10430.0, 10416.0, 10395.0, 10376.0, 10359.0, 10364.0, 10366.0, 10372.0, 10384.0, 10396.0, 10399.0, 10380.0, 10385.0, 10382.0, 10382.0, 10389.0, 10390.0, 10400.0, 10403.0, 10402.0, 10412.0, 10407.0, 10413.0, 10411.0, 10410.0, 10417.0, 10415.0, 10410.0, 10409.0, 10422.0, 10425.0, 10445.0, 10405.0, 10398.0, 10388.0, 10376.0, 10369.0, 10383.0, 10387.0, 10382.0, 10392.0, 10391.0, 10390.0, 10397.0, 10418.0, 10406.0, 10404.0, 10391.0, 10384.0, 10406.0, 10404.0, 10388.0, 10372.0, 10376.0, 10386.0, 10391.0, 10394.0, 10385.0, 10382.0, 10383.0, 10380.0, 10364.0, 10371.0, 10380.0, 10394.0, 10386.0, 10391.0, 10384.0, 10380.0, 10368.0, 10369.0, 10403.0],
      "WindowWidth": [22342.0, 22199.0, 22153.0, 22189.0, 22168.0, 22127.0, 22100.0, 22067.0, 22111.0, 22145.0, 22119.0, 22115.0, 22117.0, 22128.0, 22099.0, 22099.0, 22092.0, 22107.0, 22129.0, 22098.0, 22095.0, 22110.0, 22069.0, 22077.0, 22108.0, 22093.0, 22058.0, 22052.0, 22040.0, 22044.0, 22036.0, 22073.0, 22108.0, 22098.0, 22062.0, 22033.0, 21998.0, 22010.0, 22103.0, 22154.0, 22083.0, 22025.0, 21999.0, 21946.0, 21948.0, 22002.0, 22037.0, 22062.0, 21998.0, 21999.0, 21944.0, 21932.0, 21957.0, 21978.0, 22047.0, 22095.0, 22084.0, 22041.0, 21979.0, 22021.0, 22079.0, 22089.0, 22050.0, 22044.0, 22033.0, 21994.0, 21980.0, 22016.0, 22037.0, 22018.0, 22014.0, 22021.0, 22007.0, 21956.0, 21956.0, 21959.0, 21945.0, 21985.0, 22016.0, 22053.0, 22057.0, 22053.0, 22054.0, 22110.0, 22078.0, 22028.0, 21980.0, 21944.0, 21954.0, 21959.0, 21970.0, 22001.0, 22032.0, 22032.0, 21995.0, 22005.0, 21995.0, 21996.0, 22011.0, 22013.0, 22040.0, 22044.0, 22043.0, 22067.0, 22058.0, 22070.0, 22061.0, 22057.0, 22074.0, 22068.0, 22058.0, 22057.0, 22091.0, 22099.0, 22137.0, 22047.0, 22034.0, 22011.0, 21981.0, 21966.0, 22000.0, 22003.0, 21995.0, 22020.0, 22016.0, 22013.0, 22036.0, 22078.0, 22055.0, 22048.0, 22013.0, 21989.0, 22038.0, 22043.0, 22002.0, 21968.0, 21975.0, 21991.0, 22007.0, 22014.0, 21992.0, 21983.0, 21988.0, 21978.0, 21944.0, 21960.0, 21990.0, 22018.0, 21998.0, 22009.0, 21990.0, 21976.0, 21956.0, 21956.0, 22031.0]
    },
    "slices": {}
  }
}