{
  "AcquisitionMatrixPE": 104,
  "AcquisitionNumber": 1,
  "AcquisitionTime": "14:44:57.097500",
  "BandwidthPerPixelPhaseEncode": 17.17,
  "BaseResolution": 104,
  "BodyPartExamined": "BRAIN",
  "CoilCombinationMethod": "Sum of Squares",
  "ConsistencyInfo": "N4_VE11C_LATEST_20160120",
  "ConversionSoftware": "dcm2niix",
  "ConversionSoftwareVersion": "v1.0.20211006",
  "DerivedVendorReportedEchoSpacing": 0.000560011,
  "DeviceSerialNumber": "167006",
  "DwellTime": 2.1e-06,
  "EchoTime": 0.037,
  "EchoTime1": 0.037,
  "EchoTime2": 0.001,
  "EchoTrainLength": 104,
  "EffectiveEchoSpacing": 0.000560011,
  "FlipAngle": 52,
  "HeudiconvVersion": "0.10.0",
  "ImageComments": "Unaliased MB4/PE3/LB",
  "ImageOrientationPatientDICOM": [0.995543, 0.080729, 0.0487582, -0.0577513, 0.930558, -0.361562],
  "ImageOrientationText": "Tra>Cor(-21.0)>Sag(4.3)",
  "ImageType": [
    "ORIGINAL",
    "PRIMARY",
    "P",
    "MB",
    "ND",
    "MOSAIC",
    "PHASE"
],
  "ImagingFrequency": 123.259,
  "InPlanePhaseEncodingDirectionDICOM": "COL",
  "InstitutionAddress": "Chemin Queen-Mary 4565,Montreal,District,CA,H3W 1W5",
  "InstitutionName": "IUGM",
  "InstitutionalDepartmentName": "Department",
  "MRAcquisitionType": "2D",
  "MagneticFieldStrength": 3,
  "Manufacturer": "Siemens",
  "ManufacturersModelName": "Prisma_fit",
  "MatrixCoilMode": "SENSE",
  "Modality": "MR",
  "MultibandAccelerationFactor": 4,
  "PartialFourier": 1,
  "PatientPosition": "HFS",
  "PercentPhaseFOV": 100,
  "PercentSampling": 100,
  "PhaseEncodingDirection": "j",
  "PhaseEncodingSteps": 104,
  "PhaseResolution": 1,
  "PixelBandwidth": 2290,
  "ProcedureStepDescription": "localizers^fLoc",
  "ProtocolName": "task_fLoc_run-1",
  "PulseSequenceDetails": "%CustomerSeq%\\cmrr_mbep2d_bold",
  "ReceiveCoilActiveElements": "HC1-7;NC1,2",
  "ReceiveCoilName": "HeadNeck_64",
  "ReconMatrixPE": 104,
  "RepetitionTime": 1.49,
  "SAR": 0.0483056,
  "ScanOptions": "FS",
  "ScanningSequence": "EP",
  "SequenceName": "epfid2d1_104",
  "SequenceVariant": "SK\\SS",
  "SeriesDescription": "task_fLoc_run-1",
  "SeriesNumber": 11,
  "ShimSetting": [630, -7184, -8834, 627, 97, 40, -71, 0],
  "SliceThickness": 2,
  "SliceTiming": [0, 0.7825, 0.0975, 0.8825, 0.195, 0.98, 0.2925, 1.0775, 0.3925, 1.175, 0.49, 1.2725, 0.5875, 1.3725, 0.685, 0, 0.7825, 0.0975, 0.8825, 0.195, 0.98, 0.2925, 1.0775, 0.3925, 1.175, 0.49, 1.2725, 0.5875, 1.3725, 0.685, 0, 0.7825, 0.0975, 0.8825, 0.195, 0.98, 0.2925, 1.0775, 0.3925, 1.175, 0.49, 1.2725, 0.5875, 1.3725, 0.685, 0, 0.7825, 0.0975, 0.8825, 0.195, 0.98, 0.2925, 1.0775, 0.3925, 1.175, 0.49, 1.2725, 0.5875, 1.3725, 0.685],
  "SoftwareVersions": "syngo MR E11",
  "SpacingBetweenSlices": 2,
  "StationName": "MRC35049",
  "TaskName": "fLoc",
  "TotalReadoutTime": 0.0576811,
  "TxRefAmp": 274.718,
  "WipMemBlock": "62c89147-5f01-4d9e-910f-f70ce93b42f6||Sequence: R016 ve11c/master r/e634e98; Dec 19 2017 11:00:25 by eja",
  "dcmmeta_affine": [
    [-1.9910856485366821, -0.11550255864858627, 0.1491217017173767, 108.37275695800781],
    [-0.16145792603492737, 1.86111581325531, -0.7142685055732727, -51.066707611083984],
    [0.09751645475625992, 0.72312331199646, 1.8621448278427124, -68.22481536865234],
    [0.0, 0.0, 0.0, 1.0]
],
  "dcmmeta_reorient_transform": [
    [0.0, -1.0, 0.0, 103.0],
    [1.0, 0.0, 0.0, 0.0],
    [0.0, 0.0, 1.0, 0.0],
    [0.0, 0.0, 0.0, 1.0]
],
  "dcmmeta_shape": [104, 104, 60, 155],
  "dcmmeta_slice_dim": 2,
  "dcmmeta_version": 0.6,
  "global": {
    "const": {
      "AcquisitionMatrix": [104, 0, 0, 104],
      "AngioFlag": "N",
      "BitsAllocated": 16,
      "BitsStored": 16,
      "BodyPartExamined": "BRAIN",
      "Columns": 832,
      "EchoNumbers": 1,
      "EchoTime": 37.0,
      "EchoTrainLength": 104,
      "FlipAngle": 52.0,
      "HighBit": 15,
      "ImageOrientationPatient": [0.99554280142389, 0.08072896551193, 0.04875822659253, -0.0577512791642, 0.93055787884837, -0.3615616460137],
      "ImagePositionPatient": [-779.1882197474, -876.84503835787, 233.97776958915],
      "ImageType": [
        "ORIGINAL",
        "PRIMARY",
        "P",
        "MB",
        "ND",
        "MOSAIC"
],
      "ImagedNucleus": "1H",
      "ImagingFrequency": 123.258915,
      "InPlanePhaseEncodingDirection": "COL",
      "LargestImagePixelValue": 4095,
      "MRAcquisitionType": "2D",
      "MagneticFieldStrength": 3.0,
      "Manufacturer": "SIEMENS",
      "ManufacturerModelName": "Prisma_fit",
      "Modality": "MR",
      "NumberOfAverages": 1.0,
      "NumberOfPhaseEncodingSteps": 104,
      "PercentPhaseFieldOfView": 100.0,
      "PercentSampling": 100.0,
      "PerformedProcedureStepStartTime": "144123.038000",
      "PhotometricInterpretation": "MONOCHROME2",
      "PixelBandwidth": 2290.0,
      "PixelRepresentation": 0,
      "PixelSpacing": [2.0, 2.0],
      "ProtocolName": "task_fLoc_run-1",
      "RepetitionTime": 1490.0,
      "RescaleIntercept": -4096.0,
      "RescaleSlope": 2.0,
      "RescaleType": "US",
      "Rows": 832,
      "SAR": 0.04830560546159,
      "SamplesPerPixel": 1,
      "ScanOptions": "FS",
      "ScanningSequence": "EP",
      "SequenceName": "epfid2d1_104",
      "SequenceVariant": [
        "SK",
        "SS"
],
      "SeriesDescription": "task_fLoc_run-1",
      "SeriesNumber": 11,
      "SeriesTime": "144607.548000",
      "SliceLocation": -37.204211091852,
      "SliceThickness": 2.0,
      "SmallestImagePixelValue": 0,
      "SoftwareVersions": "syngo MR E11",
      "SpacingBetweenSlices": 1.9999999766535,
      "SpecificCharacterSet": "ISO_IR 100",
      "StudyID": "1",
      "StudyTime": "144122.955000",
      "TransmitCoilName": "Body",
      "VariableFlipAngleFlag": "N",
      "WindowCenterWidthExplanation": "Algo1",
      "dBdt": 0.0},
    "slices": {}
  },
  "time": {
    "samples": {
      "AcquisitionNumber": [1, 2, 3, 4, 5, 6, 7, 8, 9, 10, 11, 12, 13, 14, 15, 16, 17, 18, 19, 20, 21, 22, 23, 24, 25, 26, 27, 28, 29, 30, 31, 32, 33, 34, 35, 36, 37, 38, 39, 40, 41, 42, 43, 44, 45, 46, 47, 48, 49, 50, 51, 52, 53, 54, 55, 56, 57, 58, 59, 60, 61, 62, 63, 64, 65, 66, 67, 68, 69, 70, 71, 72, 73, 74, 75, 76, 77, 78, 79, 80, 81, 82, 83, 84, 85, 86, 87, 88, 89, 90, 91, 92, 93, 94, 95, 96, 97, 98, 99, 100, 101, 102, 103, 104, 105, 106, 107, 108, 109, 110, 111, 112, 113, 114, 115, 116, 117, 118, 119, 120, 121, 122, 123, 124, 125, 126, 127, 128, 129, 130, 131, 132, 133, 134, 135, 136, 137, 138, 139, 140, 141, 142, 143, 144, 145, 146, 147, 148, 149, 150, 151, 152, 153, 154, 155],
      "AcquisitionTime": ["144457.097500", "144458.587500", "144500.077500", "144501.567500", "144503.057500", "144504.547500", "144506.037500", "144507.527500", "144509.017500", "144510.507500", "144511.997500", "144513.487500", "144514.977500", "144516.467500", "144517.957500", "144519.447500", "144520.937500", "144522.427500", "144523.917500", "144525.407500", "144526.897500", "144528.387500", "144529.877500", "144531.367500", "144532.857500", "144534.347500", "144535.837500", "144537.327500", "144538.817500", "144540.307500", "144541.797500", "144543.287500", "144544.777500", "144546.267500", "144547.757500", "144549.247500", "144550.737500", "144552.227500", "144553.717500", "144555.207500", "144556.697500", "144558.187500", "144559.677500", "144601.167500", "144602.657500", "144604.147500", "144605.637500", "144607.127500", "144608.617500", "144610.107500", "144611.597500", "144613.087500", "144614.577500", "144616.067500", "144617.557500", "144619.047500", "144620.537500", "144622.027500", "144623.517500", "144625.007500", "144626.497500", "144627.987500", "144629.477500", "144630.967500", "144632.457500", "144633.947500", "144635.437500", "144636.927500", "144638.417500", "144639.907500", "144641.397500", "144642.887500", "144644.377500", "144645.867500", "144647.357500", "144648.847500", "144650.337500", "144651.827500", "144653.317500", "144654.807500", "144656.297500", "144657.787500", "144659.277500", "144700.767500", "144702.257500", "144703.747500", "144705.237500", "144706.727500", "144708.217500", "144709.707500", "144711.197500", "144712.687500", "144714.177500", "144715.667500", "144717.157500", "144718.647500", "144720.137500", "144721.627500", "144723.117500", "144724.607500", "144726.097500", "144727.587500", "144729.077500", "144730.567500", "144732.057500", "144733.547500", "144735.037500", "144736.527500", "144738.017500", "144739.507500", "144740.997500", "144742.487500", "144743.977500", "144745.467500", "144746.957500", "144748.447500", "144749.937500", "144751.427500", "144752.917500", "144754.407500", "144755.897500", "144757.387500", "144758.877500", "144800.367500", "144801.857500", "144803.347500", "144804.837500", "144806.327500", "144807.817500", "144809.307500", "144810.797500", "144812.287500", "144813.777500", "144815.267500", "144816.757500", "144818.247500", "144819.737500", "144821.227500", "144822.717500", "144824.207500", "144825.697500", "144827.187500", "144828.677500", "144830.167500", "144831.657500", "144833.147500", "144834.637500", "144836.127500", "144837.617500", "144839.107500", "144840.597500", "144842.087500", "144843.577500", "144845.067500", "144846.557500"],
      "ContentTime": ["144607.550000", "144607.553000", "144607.555000", "144607.558000", "144607.560000", "144607.563000", "144607.565000", "144607.568000", "144607.570000", "144607.573000", "144607.575000", "144607.578000", "144607.580000", "144607.583000", "144607.585000", "144607.588000", "144607.590000", "144607.593000", "144627.497000", "144627.500000", "144627.502000", "144627.505000", "144627.507000", "144627.510000", "144627.512000", "144627.514000", "144627.517000", "144627.520000", "144627.522000", "144627.525000", "144627.527000", "144627.530000", "144627.532000", "144627.535000", "144627.537000", "144627.540000", "144627.542000", "144627.545000", "144647.485000", "144647.488000", "144647.490000", "144647.493000", "144647.495000", "144647.498000", "144647.500000", "144647.503000", "144647.505000", "144647.508000", "144647.511000", "144647.513000", "144647.515000", "144647.518000", "144647.520000", "144647.523000", "144647.525000", "144647.528000", "144647.530000", "144647.533000", "144707.479000", "144707.482000", "144707.484000", "144707.487000", "144707.489000", "144707.492000", "144707.494000", "144707.497000", "144707.499000", "144707.502000", "144707.504000", "144707.507000", "144707.509000", "144707.512000", "144707.514000", "144707.517000", "144707.519000", "144707.522000", "144707.524000", "144707.526000", "144727.479000", "144727.481000", "144727.484000", "144727.486000", "144727.489000", "144727.492000", "144727.494000", "144727.510000", "144727.513000", "144727.515000", "144727.518000", "144727.521000", "144727.523000", "144727.526000", "144727.528000", "144727.531000", "144727.533000", "144727.536000", "144727.538000", "144727.541000", "144807.568000", "144807.571000", "144807.574000", "144807.576000", "144807.579000", "144807.581000", "144807.584000", "144807.586000", "144807.589000", "144807.592000", "144807.594000", "144807.597000", "144807.599000", "144807.602000", "144807.605000", "144807.607000", "144807.610000", "144807.613000", "144807.615000", "144807.618000", "144807.620000", "144807.640000", "144807.643000", "144807.645000", "144807.648000", "144807.650000", "144807.653000", "144807.655000", "144807.658000", "144847.509000", "144847.518000", "144847.521000", "144847.523000", "144847.526000", "144847.528000", "144847.531000", "144847.533000", "144847.536000", "144847.538000", "144847.541000", "144847.543000", "144847.546000", "144847.549000", "144847.551000", "144847.554000", "144847.556000", "144847.559000", "144847.561000", "144847.564000", "144847.566000", "144847.569000", "144847.571000", "144847.574000", "144847.576000", "144847.579000", "144847.582000", "144848.452000"],
      "InstanceCreationTime": ["144607.550000", "144607.553000", "144607.555000", "144607.558000", "144607.560000", "144607.563000", "144607.565000", "144607.568000", "144607.570000", "144607.573000", "144607.575000", "144607.578000", "144607.580000", "144607.583000", "144607.585000", "144607.588000", "144607.590000", "144607.593000", "144627.497000", "144627.500000", "144627.502000", "144627.505000", "144627.507000", "144627.510000", "144627.512000", "144627.514000", "144627.517000", "144627.520000", "144627.522000", "144627.525000", "144627.527000", "144627.530000", "144627.532000", "144627.535000", "144627.537000", "144627.540000", "144627.542000", "144627.545000", "144647.485000", "144647.488000", "144647.490000", "144647.493000", "144647.495000", "144647.498000", "144647.500000", "144647.503000", "144647.505000", "144647.508000", "144647.511000", "144647.513000", "144647.515000", "144647.518000", "144647.520000", "144647.523000", "144647.525000", "144647.528000", "144647.530000", "144647.533000", "144707.479000", "144707.482000", "144707.484000", "144707.487000", "144707.489000", "144707.492000", "144707.494000", "144707.497000", "144707.499000", "144707.502000", "144707.504000", "144707.507000", "144707.509000", "144707.512000", "144707.514000", "144707.517000", "144707.519000", "144707.522000", "144707.524000", "144707.526000", "144727.479000", "144727.481000", "144727.484000", "144727.486000", "144727.489000", "144727.492000", "144727.494000", "144727.510000", "144727.513000", "144727.515000", "144727.518000", "144727.521000", "144727.523000", "144727.526000", "144727.528000", "144727.531000", "144727.533000", "144727.536000", "144727.538000", "144727.541000", "144807.568000", "144807.571000", "144807.574000", "144807.576000", "144807.579000", "144807.581000", "144807.584000", "144807.586000", "144807.589000", "144807.592000", "144807.594000", "144807.597000", "144807.599000", "144807.602000", "144807.605000", "144807.607000", "144807.610000", "144807.613000", "144807.615000", "144807.618000", "144807.620000", "144807.640000", "144807.643000", "144807.645000", "144807.648000", "144807.650000", "144807.653000", "144807.655000", "144807.658000", "144847.509000", "144847.518000", "144847.521000", "144847.523000", "144847.526000", "144847.528000", "144847.531000", "144847.533000", "144847.536000", "144847.538000", "144847.541000", "144847.543000", "144847.546000", "144847.549000", "144847.551000", "144847.554000", "144847.556000", "144847.559000", "144847.561000", "144847.564000", "144847.566000", "144847.569000", "144847.571000", "144847.574000", "144847.576000", "144847.579000", "144847.582000", "144848.452000"],
      "InstanceNumber": [1, 2, 3, 4, 5, 6, 7, 8, 9, 10, 11, 12, 13, 14, 15, 16, 17, 18, 19, 20, 21, 22, 23, 24, 25, 26, 27, 28, 29, 30, 31, 32, 33, 34, 35, 36, 37, 38, 39, 40, 41, 42, 43, 44, 45, 46, 47, 48, 49, 50, 51, 52, 53, 54, 55, 56, 57, 58, 59, 60, 61, 62, 63, 64, 65, 66, 67, 68, 69, 70, 71, 72, 73, 74, 75, 76, 77, 78, 79, 80, 81, 82, 83, 84, 85, 86, 87, 88, 89, 90, 91, 92, 93, 94, 95, 96, 97, 98, 99, 100, 101, 102, 103, 104, 105, 106, 107, 108, 109, 110, 111, 112, 113, 114, 115, 116, 117, 118, 119, 120, 121, 122, 123, 124, 125, 126, 127, 128, 129, 130, 131, 132, 133, 134, 135, 136, 137, 138, 139, 140, 141, 142, 143, 144, 145, 146, 147, 148, 149, 150, 151, 152, 153, 154, 155],
      "WindowCenter": [4814.0, 4812.0, 4812.0, 4812.0, 4814.0, 4814.0, 4816.0, 4812.0, 4816.0, 4814.0, 4814.0, 4814.0, 4808.0, 4812.0, 4812.0, 4814.0, 4810.0, 4814.0, 4812.0, 4812.0, 4814.0, 4812.0, 4812.0, 4810.0, 4814.0, 4810.0, 4810.0, 4810.0, 4816.0, 4814.0, 4816.0, 4812.0, 4810.0, 4810.0, 4812.0, 4814.0, 4814.0, 4812.0, 4814.0, 4812.0, 4814.0, 4812.0, 4814.0, 4812.0, 4810.0, 4812.0, 4788.0, 4812.0, 4812.0, 4816.0, 4814.0, 4812.0, 4816.0, 4814.0, 4814.0, 4810.0, 4808.0, 4788.0, 4786.0, 4810.0, 4814.0, 4812.0, 4816.0, 4814.0, 4812.0, 4810.0, 4814.0, 4810.0, 4812.0, 4808.0, 4788.0, 4816.0, 4814.0, 4814.0, 4814.0, 4814.0, 4812.0, 4814.0, 4814.0, 4812.0, 4812.0, 4812.0, 4814.0, 4810.0, 4812.0, 4790.0, 4818.0, 4812.0, 4816.0, 4812.0, 4812.0, 4816.0, 4814.0, 4812.0, 4786.0, 4814.0, 4818.0, 4816.0, 4814.0, 4812.0, 4810.0, 4810.0, 4814.0, 4816.0, 4812.0, 4814.0, 4786.0, 4812.0, 4812.0, 4810.0, 4810.0, 4812.0, 4812.0, 4814.0, 4814.0, 4810.0, 4810.0, 4808.0, 4788.0, 4810.0, 4810.0, 4784.0, 4808.0, 4808.0, 4810.0, 4812.0, 4814.0, 4808.0, 4810.0, 4806.0, 4808.0, 4810.0, 4810.0, 4784.0, 4810.0, 4812.0, 4808.0, 4786.0, 4786.0, 4788.0, 4810.0, 4812.0, 4812.0, 4812.0, 4786.0, 4806.0, 4784.0, 4808.0, 4810.0, 4806.0, 4806.0, 4810.0, 4808.0, 4812.0, 4808.0],
      "WindowWidth": [18614.0, 18616.0, 18608.0, 18606.0, 18616.0, 18614.0, 18618.0, 18610.0, 18612.0, 18618.0, 18622.0, 18616.0, 18602.0, 18610.0, 18616.0, 18622.0, 18606.0, 18608.0, 18614.0, 18616.0, 18616.0, 18612.0, 18612.0, 18614.0, 18612.0, 18602.0, 18608.0, 18612.0, 18620.0, 18618.0, 18612.0, 18610.0, 18608.0, 18604.0, 18604.0, 18612.0, 18616.0, 18614.0, 18608.0, 18606.0, 18616.0, 18614.0, 18608.0, 18606.0, 18608.0, 18614.0, 18566.0, 18588.0, 18594.0, 18616.0, 18620.0, 18618.0, 18618.0, 18604.0, 18608.0, 18606.0, 18600.0, 18568.0, 18560.0, 18606.0, 18614.0, 18616.0, 18620.0, 18606.0, 18612.0, 18614.0, 18616.0, 18598.0, 18606.0, 18604.0, 18566.0, 18608.0, 18614.0, 18610.0, 18612.0, 18620.0, 18612.0, 18602.0, 18608.0, 18612.0, 18602.0, 18598.0, 18608.0, 18610.0, 18596.0, 18562.0, 18612.0, 18614.0, 18612.0, 18612.0, 18608.0, 18602.0, 18608.0, 18598.0, 18564.0, 18604.0, 18614.0, 18612.0, 18610.0, 18604.0, 18606.0, 18610.0, 18608.0, 18608.0, 18608.0, 18608.0, 18568.0, 18606.0, 18608.0, 18612.0, 18598.0, 18608.0, 18608.0, 18604.0, 18608.0, 18612.0, 18614.0, 18606.0, 18568.0, 18604.0, 18604.0, 18560.0, 18604.0, 18608.0, 18600.0, 18610.0, 18612.0, 18602.0, 18606.0, 18602.0, 18598.0, 18612.0, 18612.0, 18564.0, 18604.0, 18614.0, 18608.0, 18558.0, 18558.0, 18574.0, 18614.0, 18624.0, 18616.0, 18604.0, 18560.0, 18594.0, 18574.0, 18610.0, 18612.0, 18604.0, 18600.0, 18604.0, 18608.0, 18614.0, 18604.0]
    },
    "slices": {}
  }
}