{
  "AcquisitionMatrixPE": 104,
  "AcquisitionNumber": 1,
  "AcquisitionTime": "14:51:21.680000",
  "BandwidthPerPixelPhaseEncode": 17.17,
  "BaseResolution": 104,
  "BodyPartExamined": "BRAIN",
  "CoilCombinationMethod": "Sum of Squares",
  "ConsistencyInfo": "N4_VE11C_LATEST_20160120",
  "ConversionSoftware": "dcm2niix",
  "ConversionSoftwareVersion": "v1.0.20211006",
  "DerivedVendorReportedEchoSpacing": 0.000560011,
  "DeviceSerialNumber": "167006",
  "DwellTime": 2.1e-06,
  "EchoTime": 0.037,
  "EchoTrainLength": 104,
  "EffectiveEchoSpacing": 0.000560011,
  "FlipAngle": 52,
  "HeudiconvVersion": "0.10.0",
  "ImageComments": "Unaliased MB4/PE3/LB",
  "ImageOrientationPatientDICOM": [0.995543, 0.080729, 0.0487582, -0.0577513, 0.930558, -0.361562],
  "ImageOrientationText": "Tra>Cor(-21.0)>Sag(4.3)",
  "ImageType": [
    "ORIGINAL",
    "PRIMARY",
    "M",
    "MB",
    "ND",
    "MOSAIC"
],
  "ImagingFrequency": 123.259,
  "InPlanePhaseEncodingDirectionDICOM": "COL",
  "InstitutionAddress": "Chemin Queen-Mary 4565,Montreal,District,CA,H3W 1W5",
  "InstitutionName": "IUGM",
  "InstitutionalDepartmentName": "Department",
  "MRAcquisitionType": "2D",
  "MagneticFieldStrength": 3,
  "Manufacturer": "Siemens",
  "ManufacturersModelName": "Prisma_fit",
  "MatrixCoilMode": "SENSE",
  "Modality": "MR",
  "MultibandAccelerationFactor": 4,
  "PartialFourier": 1,
  "PatientPosition": "HFS",
  "PercentPhaseFOV": 100,
  "PercentSampling": 100,
  "PhaseEncodingDirection": "j",
  "PhaseEncodingSteps": 104,
  "PhaseResolution": 1,
  "PixelBandwidth": 2290,
  "ProcedureStepDescription": "localizers^fLoc",
  "ProtocolName": "task_fLoc_run-2",
  "PulseSequenceDetails": "%CustomerSeq%\\cmrr_mbep2d_bold",
  "ReceiveCoilActiveElements": "HC1-7;NC1,2",
  "ReceiveCoilName": "HeadNeck_64",
  "ReconMatrixPE": 104,
  "RepetitionTime": 1.49,
  "SAR": 0.0483056,
  "ScanOptions": "FS",
  "ScanningSequence": "EP",
  "SequenceName": "epfid2d1_104",
  "SequenceVariant": "SK\\SS",
  "SeriesDescription": "task_fLoc_run-2",
  "SeriesNumber": 13,
  "ShimSetting": [630, -7184, -8834, 627, 97, 40, -71, 0],
  "SliceThickness": 2,
  "SliceTiming": [0, 0.7825, 0.0975, 0.88, 0.195, 0.98, 0.2925, 1.0775, 0.39, 1.175, 0.49, 1.2725, 0.5875, 1.37, 0.685, 0, 0.7825, 0.0975, 0.88, 0.195, 0.98, 0.2925, 1.0775, 0.39, 1.175, 0.49, 1.2725, 0.5875, 1.37, 0.685, 0, 0.7825, 0.0975, 0.88, 0.195, 0.98, 0.2925, 1.0775, 0.39, 1.175, 0.49, 1.2725, 0.5875, 1.37, 0.685, 0, 0.7825, 0.0975, 0.88, 0.195, 0.98, 0.2925, 1.0775, 0.39, 1.175, 0.49, 1.2725, 0.5875, 1.37, 0.685],
  "SoftwareVersions": "syngo MR E11",
  "SpacingBetweenSlices": 2,
  "StationName": "MRC35049",
  "TaskName": "fLoc",
  "TotalReadoutTime": 0.0576811,
  "TxRefAmp": 274.718,
  "WipMemBlock": "023e759a-f4f5-41d6-8324-8f051595c989||Sequence: R016 ve11c/master r/e634e98; Dec 19 2017 11:00:25 by eja",
  "dcmmeta_affine": [
    [-1.9910856485366821, -0.11550255864858627, 0.1491217017173767, 108.37275695800781],
    [-0.16145792603492737, 1.86111581325531, -0.7142685055732727, -51.066707611083984],
    [0.09751645475625992, 0.72312331199646, 1.8621448278427124, -68.22481536865234],
    [0.0, 0.0, 0.0, 1.0]
],
  "dcmmeta_reorient_transform": [
    [0.0, -1.0, 0.0, 103.0],
    [1.0, 0.0, 0.0, 0.0],
    [0.0, 0.0, 1.0, 0.0],
    [0.0, 0.0, 0.0, 1.0]
],
  "dcmmeta_shape": [104, 104, 60, 155],
  "dcmmeta_slice_dim": 2,
  "dcmmeta_version": 0.6,
  "global": {
    "const": {
      "AcquisitionMatrix": [104, 0, 0, 104],
      "AngioFlag": "N",
      "BitsAllocated": 16,
      "BitsStored": 16,
      "BodyPartExamined": "BRAIN",
      "Columns": 832,
      "EchoNumbers": 1,
      "EchoTime": 37.0,
      "EchoTrainLength": 104,
      "FlipAngle": 52.0,
      "HighBit": 15,
      "ImageOrientationPatient": [0.99554280142389, 0.08072896551193, 0.04875822659253, -0.0577512791642, 0.93055787884837, -0.3615616460137],
      "ImagePositionPatient": [-779.1882197474, -876.84503835787, 233.97776958915],
      "ImageType": [
        "ORIGINAL",
        "PRIMARY",
        "M",
        "MB",
        "ND",
        "MOSAIC"
],
      "ImagedNucleus": "1H",
      "ImagingFrequency": 123.258917,
      "InPlanePhaseEncodingDirection": "COL",
      "MRAcquisitionType": "2D",
      "MagneticFieldStrength": 3.0,
      "Manufacturer": "SIEMENS",
      "ManufacturerModelName": "Prisma_fit",
      "Modality": "MR",
      "NumberOfAverages": 1.0,
      "NumberOfPhaseEncodingSteps": 104,
      "PercentPhaseFieldOfView": 100.0,
      "PercentSampling": 100.0,
      "PerformedProcedureStepStartTime": "144123.038000",
      "PhotometricInterpretation": "MONOCHROME2",
      "PixelBandwidth": 2290.0,
      "PixelRepresentation": 0,
      "PixelSpacing": [2.0, 2.0],
      "ProtocolName": "task_fLoc_run-2",
      "RepetitionTime": 1490.0,
      "Rows": 832,
      "SAR": 0.04830560546159,
      "SamplesPerPixel": 1,
      "ScanOptions": "FS",
      "ScanningSequence": "EP",
      "SequenceName": "epfid2d1_104",
      "SequenceVariant": [
        "SK",
        "SS"
],
      "SeriesDescription": "task_fLoc_run-2",
      "SeriesNumber": 13,
      "SeriesTime": "145239.239000",
      "SliceLocation": -37.204211091852,
      "SliceThickness": 2.0,
      "SmallestImagePixelValue": 0,
      "SoftwareVersions": "syngo MR E11",
      "SpacingBetweenSlices": 1.9999999766535,
      "SpecificCharacterSet": "ISO_IR 100",
      "StudyID": "1",
      "StudyTime": "144122.955000",
      "TransmitCoilName": "Body",
      "VariableFlipAngleFlag": "N",
      "WindowCenterWidthExplanation": "Algo1",
      "dBdt": 0.0},
    "slices": {}
  },
  "time": {
    "samples": {
      "AcquisitionNumber": [1, 2, 3, 4, 5, 6, 7, 8, 9, 10, 11, 12, 13, 14, 15, 16, 17, 18, 19, 20, 21, 22, 23, 24, 25, 26, 27, 28, 29, 30, 31, 32, 33, 34, 35, 36, 37, 38, 39, 40, 41, 42, 43, 44, 45, 46, 47, 48, 49, 50, 51, 52, 53, 54, 55, 56, 57, 58, 59, 60, 61, 62, 63, 64, 65, 66, 67, 68, 69, 70, 71, 72, 73, 74, 75, 76, 77, 78, 79, 80, 81, 82, 83, 84, 85, 86, 87, 88, 89, 90, 91, 92, 93, 94, 95, 96, 97, 98, 99, 100, 101, 102, 103, 104, 105, 106, 107, 108, 109, 110, 111, 112, 113, 114, 115, 116, 117, 118, 119, 120, 121, 122, 123, 124, 125, 126, 127, 128, 129, 130, 131, 132, 133, 134, 135, 136, 137, 138, 139, 140, 141, 142, 143, 144, 145, 146, 147, 148, 149, 150, 151, 152, 153, 154, 155],
      "AcquisitionTime": ["145121.680000", "145123.170000", "145124.660000", "145126.150000", "145127.640000", "145129.130000", "145130.620000", "145132.110000", "145133.600000", "145135.090000", "145136.580000", "145138.070000", "145139.560000", "145141.050000", "145142.540000", "145144.030000", "145145.520000", "145147.010000", "145148.500000", "145149.990000", "145151.480000", "145152.970000", "145154.460000", "145155.950000", "145157.440000", "145158.930000", "145200.420000", "145201.910000", "145203.400000", "145204.890000", "145206.380000", "145207.870000", "145209.360000", "145210.850000", "145212.340000", "145213.830000", "145215.320000", "145216.810000", "145218.300000", "145219.790000", "145221.280000", "145222.770000", "145224.260000", "145225.750000", "145227.240000", "145228.730000", "145230.220000", "145231.710000", "145233.200000", "145234.690000", "145236.180000", "145237.670000", "145239.160000", "145240.650000", "145242.140000", "145243.630000", "145245.120000", "145246.610000", "145248.100000", "145249.590000", "145251.080000", "145252.570000", "145254.060000", "145255.550000", "145257.040000", "145258.530000", "145300.020000", "145301.510000", "145303.000000", "145304.490000", "145305.980000", "145307.470000", "145308.960000", "145310.450000", "145311.940000", "145313.430000", "145314.920000", "145316.410000", "145317.900000", "145319.390000", "145320.880000", "145322.370000", "145323.860000", "145325.350000", "145326.840000", "145328.330000", "145329.820000", "145331.310000", "145332.800000", "145334.290000", "145335.780000", "145337.270000", "145338.760000", "145340.250000", "145341.740000", "145343.230000", "145344.720000", "145346.210000", "145347.700000", "145349.190000", "145350.680000", "145352.170000", "145353.660000", "145355.150000", "145356.640000", "145358.130000", "145359.620000", "145401.110000", "145402.600000", "145404.090000", "145405.580000", "145407.070000", "145408.560000", "145410.050000", "145411.540000", "145413.030000", "145414.520000", "145416.010000", "145417.500000", "145418.990000", "145420.480000", "145421.970000", "145423.460000", "145424.950000", "145426.440000", "145427.930000", "145429.420000", "145430.910000", "145432.400000", "145433.890000", "145435.380000", "145436.870000", "145438.360000", "145439.850000", "145441.340000", "145442.830000", "145444.320000", "145445.810000", "145447.300000", "145448.790000", "145450.280000", "145451.770000", "145453.260000", "145454.750000", "145456.240000", "145457.730000", "145459.220000", "145500.710000", "145502.200000", "145503.690000", "145505.180000", "145506.670000", "145508.160000", "145509.650000", "145511.140000"],
      "ContentTime": ["145239.242000", "145239.246000", "145239.249000", "145239.252000", "145239.256000", "145239.259000", "145239.267000", "145239.271000", "145239.274000", "145239.277000", "145239.280000", "145239.284000", "145239.287000", "145239.290000", "145239.294000", "145239.297000", "145239.315000", "145239.319000", "145239.322000", "145239.325000", "145239.329000", "145239.332000", "145239.335000", "145259.213000", "145259.217000", "145259.224000", "145259.227000", "145259.231000", "145259.234000", "145259.238000", "145259.241000", "145259.244000", "145259.248000", "145259.251000", "145259.254000", "145259.258000", "145259.261000", "145259.265000", "145259.268000", "145259.271000", "145259.275000", "145259.278000", "145259.281000", "145319.213000", "145319.225000", "145319.228000", "145319.231000", "145319.235000", "145319.238000", "145319.241000", "145319.245000", "145319.249000", "145319.252000", "145319.263000", "145319.267000", "145319.270000", "145319.273000", "145319.277000", "145319.280000", "145319.283000", "145319.287000", "145319.290000", "145319.293000", "145339.213000", "145339.217000", "145339.233000", "145339.236000", "145339.239000", "145339.243000", "145339.246000", "145339.249000", "145339.252000", "145339.256000", "145339.259000", "145339.262000", "145339.266000", "145339.269000", "145339.272000", "145339.275000", "145339.286000", "145339.289000", "145339.292000", "145339.296000", "145339.299000", "145359.213000", "145359.217000", "145359.227000", "145359.230000", "145359.233000", "145359.237000", "145359.240000", "145359.243000", "145359.247000", "145359.250000", "145359.254000", "145359.257000", "145359.261000", "145359.264000", "145359.268000", "145359.271000", "145359.274000", "145359.278000", "145359.281000", "145359.284000", "145439.213000", "145439.217000", "145439.220000", "145439.223000", "145439.227000", "145439.230000", "145439.233000", "145439.237000", "145439.240000", "145439.243000", "145439.247000", "145439.250000", "145439.253000", "145439.256000", "145439.260000", "145439.263000", "145439.266000", "145439.270000", "145439.273000", "145439.276000", "145439.280000", "145439.323000", "145439.326000", "145439.330000", "145439.333000", "145439.336000", "145439.339000", "145439.343000", "145459.213000", "145459.217000", "145459.220000", "145459.224000", "145459.227000", "145459.230000", "145459.234000", "145459.237000", "145459.240000", "145459.243000", "145459.247000", "145459.250000", "145459.254000", "145513.087000", "145513.090000", "145513.094000", "145513.097000", "145513.100000", "145513.104000", "145513.107000", "145513.110000", "145513.114000", "145513.117000"],
      "InstanceCreationTime": ["145239.242000", "145239.246000", "145239.249000", "145239.252000", "145239.256000", "145239.259000", "145239.267000", "145239.271000", "145239.274000", "145239.277000", "145239.280000", "145239.284000", "145239.287000", "145239.290000", "145239.294000", "145239.297000", "145239.315000", "145239.319000", "145239.322000", "145239.325000", "145239.329000", "145239.332000", "145239.335000", "145259.213000", "145259.217000", "145259.224000", "145259.227000", "145259.231000", "145259.234000", "145259.238000", "145259.241000", "145259.244000", "145259.248000", "145259.251000", "145259.254000", "145259.258000", "145259.261000", "145259.265000", "145259.268000", "145259.271000", "145259.275000", "145259.278000", "145259.281000", "145319.213000", "145319.225000", "145319.228000", "145319.231000", "145319.235000", "145319.238000", "145319.241000", "145319.245000", "145319.249000", "145319.252000", "145319.263000", "145319.267000", "145319.270000", "145319.273000", "145319.277000", "145319.280000", "145319.283000", "145319.287000", "145319.290000", "145319.293000", "145339.213000", "145339.217000", "145339.233000", "145339.236000", "145339.239000", "145339.243000", "145339.246000", "145339.249000", "145339.252000", "145339.256000", "145339.259000", "145339.262000", "145339.266000", "145339.269000", "145339.272000", "145339.275000", "145339.286000", "145339.289000", "145339.292000", "145339.296000", "145339.299000", "145359.213000", "145359.217000", "145359.227000", "145359.230000", "145359.233000", "145359.237000", "145359.240000", "145359.243000", "145359.247000", "145359.250000", "145359.254000", "145359.257000", "145359.261000", "145359.264000", "145359.268000", "145359.271000", "145359.274000", "145359.278000", "145359.281000", "145359.284000", "145439.213000", "145439.217000", "145439.220000", "145439.223000", "145439.227000", "145439.230000", "145439.233000", "145439.237000", "145439.240000", "145439.243000", "145439.247000", "145439.250000", "145439.253000", "145439.256000", "145439.260000", "145439.263000", "145439.266000", "145439.270000", "145439.273000", "145439.276000", "145439.280000", "145439.323000", "145439.326000", "145439.330000", "145439.333000", "145439.336000", "145439.339000", "145439.343000", "145459.213000", "145459.217000", "145459.220000", "145459.224000", "145459.227000", "145459.230000", "145459.234000", "145459.237000", "145459.240000", "145459.243000", "145459.247000", "145459.250000", "145459.254000", "145513.087000", "145513.090000", "145513.094000", "145513.097000", "145513.100000", "145513.104000", "145513.107000", "145513.110000", "145513.114000", "145513.117000"],
      "InstanceNumber": [1, 2, 3, 4, 5, 6, 7, 8, 9, 10, 11, 12, 13, 14, 15, 16, 17, 18, 19, 20, 21, 22, 23, 24, 25, 26, 27, 28, 29, 30, 31, 32, 33, 34, 35, 36, 37, 38, 39, 40, 41, 42, 43, 44, 45, 46, 47, 48, 49, 50, 51, 52, 53, 54, 55, 56, 57, 58, 59, 60, 61, 62, 63, 64, 65, 66, 67, 68, 69, 70, 71, 72, 73, 74, 75, 76, 77, 78, 79, 80, 81, 82, 83, 84, 85, 86, 87, 88, 89, 90, 91, 92, 93, 94, 95, 96, 97, 98, 99, 100, 101, 102, 103, 104, 105, 106, 107, 108, 109, 110, 111, 112, 113, 114, 115, 116, 117, 118, 119, 120, 121, 122, 123, 124, 125, 126, 127, 128, 129, 130, 131, 132, 133, 134, 135, 136, 137, 138, 139, 140, 141, 142, 143, 144, 145, 146, 147, 148, 149, 150, 151, 152, 153, 154, 155],
      "LargestImagePixelValue": [47577, 46442, 45014, 44783, 45452, 45736, 44846, 44647, 44246, 44509, 45246, 44349, 44909, 44326, 44945, 45205, 44923, 44390, 44806, 46648, 45660, 46066, 45026, 44704, 45656, 46374, 45058, 45860, 44437, 44637, 45132, 44972, 44300, 44994, 45819, 45314, 45566, 44994, 44774, 45354, 44842, 44919, 45227, 44697, 45186, 44922, 45586, 45337, 44883, 46160, 45135, 44667, 44705, 44723, 45377, 44736, 44609, 45257, 45512, 45350, 45342, 45045, 46256, 45488, 45682, 44316, 44136, 44970, 44884, 45768, 45148, 44396, 45452, 44888, 44505, 44748, 44178, 45027, 43899, 43966, 44525, 45449, 43734, 44168, 44131, 44587, 43088, 43612, 43323, 44179, 43576, 43806, 43486, 43724, 44567, 43616, 44159, 43724, 43483, 43260, 44536, 44121, 43804, 43402, 43749, 43616, 44243, 44199, 43295, 43193, 43419, 44335, 43268, 42242, 42924, 43520, 42986, 42944, 42127, 42730, 42105, 42749, 41820, 40784, 40746, 40612, 40178, 39679, 41394, 41147, 40600, 40974, 40612, 40211, 39985, 39629, 40508, 40333, 40452, 40709, 40891, 40842, 40914, 41026, 41161, 42110, 40714, 40009, 40749, 40585, 41168, 41655, 41926, 42065, 43008],
      "WindowCenter": [10536.0, 10495.0, 10465.0, 10457.0, 10463.0, 10488.0, 10476.0, 10459.0, 10442.0, 10445.0, 10463.0, 10460.0, 10455.0, 10437.0, 10436.0, 10459.0, 10463.0, 10458.0, 10454.0, 10470.0, 10458.0, 10447.0, 10434.0, 10435.0, 10463.0, 10482.0, 10463.0, 10446.0, 10428.0, 10436.0, 10470.0, 10483.0, 10453.0, 10437.0, 10437.0, 10441.0, 10440.0, 10458.0, 10470.0, 10468.0, 10464.0, 10457.0, 10435.0, 10418.0, 10421.0, 10441.0, 10459.0, 10455.0, 10444.0, 10444.0, 10428.0, 10428.0, 10442.0, 10451.0, 10465.0, 10459.0, 10444.0, 10448.0, 10465.0, 10458.0, 10443.0, 10435.0, 10441.0, 10449.0, 10454.0, 10438.0, 10441.0, 10442.0, 10437.0, 10447.0, 10442.0, 10444.0, 10457.0, 10474.0, 10468.0, 10460.0, 10449.0, 10459.0, 10440.0, 10439.0, 10462.0, 10478.0, 10452.0, 10433.0, 10438.0, 10445.0, 10433.0, 10432.0, 10429.0, 10433.0, 10422.0, 10430.0, 10441.0, 10442.0, 10446.0, 10416.0, 10400.0, 10398.0, 10407.0, 10427.0, 10467.0, 10464.0, 10440.0, 10413.0, 10401.0, 10405.0, 10419.0, 10409.0, 10393.0, 10385.0, 10390.0, 10405.0, 10393.0, 10384.0, 10399.0, 10410.0, 10401.0, 10389.0, 10391.0, 10420.0, 10428.0, 10419.0, 10389.0, 10361.0, 10356.0, 10367.0, 10388.0, 10387.0, 10404.0, 10411.0, 10407.0, 10396.0, 10377.0, 10369.0, 10364.0, 10366.0, 10379.0, 10389.0, 10408.0, 10400.0, 10389.0, 10379.0, 10388.0, 10410.0, 10440.0, 10439.0, 10409.0, 10387.0, 10383.0, 10403.0, 10438.0, 10445.0, 10442.0, 10410.0, 10407.0],
      "WindowWidth": [22396.0, 22291.0, 22216.0, 22193.0, 22203.0, 22263.0, 22233.0, 22191.0, 22151.0, 22154.0, 22198.0, 22195.0, 22175.0, 22135.0, 22132.0, 22186.0, 22199.0, 22184.0, 22171.0, 22201.0, 22176.0, 22152.0, 22125.0, 22130.0, 22191.0, 22239.0, 22195.0, 22156.0, 22113.0, 22133.0, 22217.0, 22248.0, 22176.0, 22133.0, 22131.0, 22143.0, 22142.0, 22187.0, 22214.0, 22204.0, 22202.0, 22187.0, 22130.0, 22089.0, 22097.0, 22148.0, 22186.0, 22171.0, 22152.0, 22144.0, 22107.0, 22112.0, 22149.0, 22168.0, 22198.0, 22184.0, 22149.0, 22153.0, 22194.0, 22179.0, 22144.0, 22127.0, 22136.0, 22162.0, 22172.0, 22141.0, 22148.0, 22143.0, 22135.0, 22154.0, 22142.0, 22150.0, 22181.0, 22225.0, 22214.0, 22183.0, 22165.0, 22180.0, 22143.0, 22137.0, 22189.0, 22228.0, 22169.0, 22123.0, 22137.0, 22156.0, 22130.0, 22125.0, 22123.0, 22127.0, 22097.0, 22116.0, 22146.0, 22149.0, 22157.0, 22088.0, 22044.0, 22042.0, 22067.0, 22113.0, 22204.0, 22197.0, 22140.0, 22075.0, 22047.0, 22065.0, 22094.0, 22068.0, 22029.0, 22011.0, 22025.0, 22057.0, 22031.0, 22017.0, 22050.0, 22074.0, 22057.0, 22028.0, 22034.0, 22096.0, 22121.0, 22097.0, 22029.0, 21972.0, 21960.0, 21986.0, 22037.0, 22039.0, 22073.0, 22086.0, 22083.0, 22054.0, 22009.0, 21990.0, 21982.0, 21989.0, 22016.0, 22040.0, 22086.0, 22065.0, 22037.0, 22015.0, 22036.0, 22086.0, 22156.0, 22150.0, 22084.0, 22033.0, 22022.0, 22068.0, 22150.0, 22168.0, 22156.0, 22080.0, 22069.0]
    },
    "slices": {}
  }
}