{
  "AcquisitionMatrixPE": 104,
  "AcquisitionNumber": 1,
  "AcquisitionTime": "11:24:53.462500",
  "BandwidthPerPixelPhaseEncode": 17.17,
  "BaseResolution": 104,
  "BodyPartExamined": "BRAIN",
  "CoilCombinationMethod": "Sum of Squares",
  "ConsistencyInfo": "N4_VE11C_LATEST_20160120",
  "ConversionSoftware": "dcm2niix",
  "ConversionSoftwareVersion": "v1.0.20211006",
  "DerivedVendorReportedEchoSpacing": 0.000560011,
  "DeviceSerialNumber": "167006",
  "DwellTime": 2.1e-06,
  "EchoTime": 0.037,
  "EchoTime1": 0.037,
  "EchoTime2": 0.001,
  "EchoTrainLength": 104,
  "EffectiveEchoSpacing": 0.000560011,
  "FlipAngle": 52,
  "HeudiconvVersion": "0.10.0",
  "ImageComments": "Unaliased MB4/PE3/LB",
  "ImageOrientationPatientDICOM": [0.999606, -0.00177298, 0.0280045, 0.0160522, 0.854708, -0.518861],
  "ImageOrientationText": "Tra>Cor(-31.3)>Sag(1.3)",
  "ImageType": [
    "ORIGINAL",
    "PRIMARY",
    "P",
    "MB",
    "ND",
    "MOSAIC",
    "PHASE"
],
  "ImagingFrequency": 123.259,
  "InPlanePhaseEncodingDirectionDICOM": "COL",
  "InstitutionAddress": "Chemin Queen-Mary 4565,Montreal,District,CA,H3W 1W5",
  "InstitutionName": "IUGM",
  "InstitutionalDepartmentName": "Department",
  "MRAcquisitionType": "2D",
  "MagneticFieldStrength": 3,
  "Manufacturer": "Siemens",
  "ManufacturersModelName": "Prisma_fit",
  "MatrixCoilMode": "SENSE",
  "Modality": "MR",
  "MultibandAccelerationFactor": 4,
  "PartialFourier": 1,
  "PatientPosition": "HFS",
  "PercentPhaseFOV": 100,
  "PercentSampling": 100,
  "PhaseEncodingDirection": "j",
  "PhaseEncodingSteps": 104,
  "PhaseResolution": 1,
  "PixelBandwidth": 2290,
  "ProcedureStepDescription": "localizers^fLoc",
  "ProtocolName": "task_fLoc_run-1",
  "PulseSequenceDetails": "%CustomerSeq%\\cmrr_mbep2d_bold",
  "ReceiveCoilActiveElements": "HC1-7;NC1,2",
  "ReceiveCoilName": "HeadNeck_64",
  "ReconMatrixPE": 104,
  "RepetitionTime": 1.49,
  "SAR": 0.0419104,
  "ScanOptions": "FS",
  "ScanningSequence": "EP",
  "SequenceName": "epfid2d1_104",
  "SequenceVariant": "SK\\SS",
  "SeriesDescription": "task_fLoc_run-1",
  "SeriesNumber": 11,
  "ShimSetting": [621, -7198, -8863, 250, 29, -195, -14, 3],
  "SliceThickness": 2,
  "SliceTiming": [0, 0.7825, 0.0975, 0.88, 0.195, 0.98, 0.2925, 1.0775, 0.39, 1.175, 0.49, 1.2725, 0.5875, 1.37, 0.685, 0, 0.7825, 0.0975, 0.88, 0.195, 0.98, 0.2925, 1.0775, 0.39, 1.175, 0.49, 1.2725, 0.5875, 1.37, 0.685, 0, 0.7825, 0.0975, 0.88, 0.195, 0.98, 0.2925, 1.0775, 0.39, 1.175, 0.49, 1.2725, 0.5875, 1.37, 0.685, 0, 0.7825, 0.0975, 0.88, 0.195, 0.98, 0.2925, 1.0775, 0.39, 1.175, 0.49, 1.2725, 0.5875, 1.37, 0.685],
  "SoftwareVersions": "syngo MR E11",
  "SpacingBetweenSlices": 2,
  "StationName": "MRC35049",
  "TaskName": "fLoc",
  "TotalReadoutTime": 0.0576811,
  "TxRefAmp": 254.638,
  "WipMemBlock": "458e4ba9-70f9-42df-816f-03b1d7576f86||Sequence: R016 ve11c/master r/e634e98; Dec 19 2017 11:00:25 by eja",
  "dcmmeta_affine": [
    [-1.9992125034332275, 0.03210430219769478, 0.04603147506713867, 103.83342742919922],
    [0.003545968094840646, 1.7094156742095947, -1.038212537765503, -50.47442626953125],
    [0.05600900948047638, 1.037722110748291, 1.7087994813919067, -95.387451171875],
    [0.0, 0.0, 0.0, 1.0]
],
  "dcmmeta_reorient_transform": [
    [0.0, -1.0, 0.0, 103.0],
    [1.0, 0.0, 0.0, 0.0],
    [0.0, 0.0, 1.0, 0.0],
    [0.0, 0.0, 0.0, 1.0]
],
  "dcmmeta_shape": [104, 104, 60, 155],
  "dcmmeta_slice_dim": 2,
  "dcmmeta_version": 0.6,
  "global": {
    "const": {
      "AcquisitionMatrix": [104, 0, 0, 104],
      "AngioFlag": "N",
      "BitsAllocated": 16,
      "BitsStored": 16,
      "BodyPartExamined": "BRAIN",
      "Columns": 832,
      "EchoNumbers": 1,
      "EchoTime": 37.0,
      "EchoTrainLength": 104,
      "FlipAngle": 52.0,
      "HighBit": 15,
      "ImageOrientationPatient": [0.99960622460788, -0.0017729840921, 0.02800450414813, 0.01605215126584, 0.8547078577705, -0.5188610664765],
      "ImagePositionPatient": [-846.53946852266, -746.53198213674, 368.84150476685],
      "ImageType": [
        "ORIGINAL",
        "PRIMARY",
        "P",
        "MB",
        "ND",
        "MOSAIC"
],
      "ImagedNucleus": "1H",
      "ImagingFrequency": 123.259096,
      "InPlanePhaseEncodingDirection": "COL",
      "LargestImagePixelValue": 4095,
      "MRAcquisitionType": "2D",
      "MagneticFieldStrength": 3.0,
      "Manufacturer": "SIEMENS",
      "ManufacturerModelName": "Prisma_fit",
      "Modality": "MR",
      "NumberOfAverages": 1.0,
      "NumberOfPhaseEncodingSteps": 104,
      "PercentPhaseFieldOfView": 100.0,
      "PercentSampling": 100.0,
      "PerformedProcedureStepStartTime": "112100.520000",
      "PhotometricInterpretation": "MONOCHROME2",
      "PixelBandwidth": 2290.0,
      "PixelRepresentation": 0,
      "PixelSpacing": [2.0, 2.0],
      "ProtocolName": "task_fLoc_run-1",
      "RepetitionTime": 1490.0,
      "RescaleIntercept": -4096.0,
      "RescaleSlope": 2.0,
      "RescaleType": "US",
      "Rows": 832,
      "SAR": 0.04191041616468,
      "SamplesPerPixel": 1,
      "ScanOptions": "FS",
      "ScanningSequence": "EP",
      "SequenceName": "epfid2d1_104",
      "SequenceVariant": [
        "SK",
        "SS"
],
      "SeriesDescription": "task_fLoc_run-1",
      "SeriesNumber": 11,
      "SeriesTime": "112621.989000",
      "SliceLocation": -52.907621977006,
      "SliceThickness": 2.0,
      "SmallestImagePixelValue": 0,
      "SoftwareVersions": "syngo MR E11",
      "SpacingBetweenSlices": 1.9999999939493,
      "SpecificCharacterSet": "ISO_IR 100",
      "StudyID": "1",
      "StudyTime": "112100.328000",
      "TransmitCoilName": "Body",
      "VariableFlipAngleFlag": "N",
      "WindowCenterWidthExplanation": "Algo1",
      "dBdt": 0.0},
    "slices": {}
  },
  "time": {
    "samples": {
      "AcquisitionNumber": [1, 2, 3, 4, 5, 6, 7, 8, 9, 10, 11, 12, 13, 14, 15, 16, 17, 18, 19, 20, 21, 22, 23, 24, 25, 26, 27, 28, 29, 30, 31, 32, 33, 34, 35, 36, 37, 38, 39, 40, 41, 42, 43, 44, 45, 46, 47, 48, 49, 50, 51, 52, 53, 54, 55, 56, 57, 58, 59, 60, 61, 62, 63, 64, 65, 66, 67, 68, 69, 70, 71, 72, 73, 74, 75, 76, 77, 78, 79, 80, 81, 82, 83, 84, 85, 86, 87, 88, 89, 90, 91, 92, 93, 94, 95, 96, 97, 98, 99, 100, 101, 102, 103, 104, 105, 106, 107, 108, 109, 110, 111, 112, 113, 114, 115, 116, 117, 118, 119, 120, 121, 122, 123, 124, 125, 126, 127, 128, 129, 130, 131, 132, 133, 134, 135, 136, 137, 138, 139, 140, 141, 142, 143, 144, 145, 146, 147, 148, 149, 150, 151, 152, 153, 154, 155],
      "AcquisitionTime": ["112453.462500", "112454.952500", "112456.442500", "112457.932500", "112459.422500", "112500.912500", "112502.402500", "112503.892500", "112505.382500", "112506.872500", "112508.362500", "112509.852500", "112511.342500", "112512.832500", "112514.322500", "112515.812500", "112517.302500", "112518.792500", "112520.282500", "112521.772500", "112523.262500", "112524.752500", "112526.242500", "112527.732500", "112529.222500", "112530.712500", "112532.202500", "112533.692500", "112535.182500", "112536.672500", "112538.162500", "112539.652500", "112541.142500", "112542.632500", "112544.122500", "112545.612500", "112547.102500", "112548.592500", "112550.082500", "112551.572500", "112553.062500", "112554.552500", "112556.042500", "112557.532500", "112559.022500", "112600.512500", "112602.002500", "112603.492500", "112604.982500", "112606.472500", "112607.962500", "112609.452500", "112610.942500", "112612.432500", "112613.922500", "112615.412500", "112616.902500", "112618.392500", "112619.882500", "112621.372500", "112622.862500", "112624.352500", "112625.842500", "112627.332500", "112628.822500", "112630.312500", "112631.802500", "112633.292500", "112634.782500", "112636.272500", "112637.762500", "112639.252500", "112640.742500", "112642.232500", "112643.722500", "112645.212500", "112646.702500", "112648.192500", "112649.682500", "112651.172500", "112652.662500", "112654.152500", "112655.642500", "112657.132500", "112658.622500", "112700.112500", "112701.602500", "112703.092500", "112704.582500", "112706.072500", "112707.562500", "112709.052500", "112710.542500", "112712.032500", "112713.522500", "112715.012500", "112716.502500", "112717.992500", "112719.482500", "112720.972500", "112722.462500", "112723.952500", "112725.442500", "112726.932500", "112728.422500", "112729.912500", "112731.402500", "112732.892500", "112734.382500", "112735.872500", "112737.362500", "112738.852500", "112740.342500", "112741.832500", "112743.322500", "112744.812500", "112746.302500", "112747.792500", "112749.282500", "112750.772500", "112752.262500", "112753.752500", "112755.242500", "112756.732500", "112758.222500", "112759.712500", "112801.202500", "112802.692500", "112804.182500", "112805.672500", "112807.162500", "112808.652500", "112810.142500", "112811.632500", "112813.122500", "112814.612500", "112816.102500", "112817.592500", "112819.082500", "112820.572500", "112822.062500", "112823.552500", "112825.042500", "112826.532500", "112828.022500", "112829.512500", "112831.002500", "112832.492500", "112833.982500", "112835.472500", "112836.962500", "112838.452500", "112839.942500", "112841.432500", "112842.922500"],
      "ContentTime": ["112621.991000", "112621.994000", "112621.996000", "112621.999000", "112622.001000", "112622.004000", "112622.006000", "112622.009000", "112622.011000", "112622.014000", "112622.016000", "112622.019000", "112622.021000", "112622.028000", "112622.031000", "112622.033000", "112622.036000", "112622.038000", "112622.041000", "112622.043000", "112622.046000", "112622.048000", "112622.051000", "112622.053000", "112622.056000", "112622.058000", "112622.060000", "112622.063000", "112622.065000", "112622.068000", "112622.070000", "112622.073000", "112622.075000", "112622.078000", "112641.909000", "112641.911000", "112641.914000", "112641.916000", "112641.919000", "112641.922000", "112641.924000", "112641.927000", "112641.929000", "112641.932000", "112641.934000", "112641.937000", "112641.939000", "112641.942000", "112641.944000", "112641.947000", "112641.955000", "112641.957000", "112641.959000", "112641.962000", "112641.964000", "112701.891000", "112701.894000", "112701.896000", "112701.899000", "112701.901000", "112701.904000", "112701.906000", "112701.909000", "112701.911000", "112701.914000", "112701.916000", "112701.919000", "112701.921000", "112701.923000", "112701.926000", "112701.928000", "112701.931000", "112701.933000", "112701.936000", "112701.938000", "112721.904000", "112721.907000", "112721.909000", "112721.912000", "112721.914000", "112721.917000", "112721.919000", "112721.922000", "112721.924000", "112721.926000", "112721.929000", "112721.931000", "112721.934000", "112721.936000", "112721.939000", "112721.941000", "112721.944000", "112721.946000", "112721.949000", "112721.951000", "112802.116000", "112802.119000", "112802.121000", "112802.124000", "112802.126000", "112802.129000", "112802.131000", "112802.134000", "112802.136000", "112802.139000", "112802.141000", "112802.144000", "112802.146000", "112802.149000", "112802.151000", "112802.154000", "112802.156000", "112802.158000", "112802.161000", "112802.163000", "112802.166000", "112802.168000", "112802.171000", "112802.173000", "112802.176000", "112802.178000", "112802.181000", "112802.183000", "112802.186000", "112802.188000", "112802.191000", "112841.919000", "112841.921000", "112841.924000", "112841.926000", "112841.929000", "112841.931000", "112841.934000", "112841.936000", "112841.939000", "112841.941000", "112841.944000", "112841.947000", "112841.949000", "112841.952000", "112841.954000", "112841.957000", "112841.959000", "112841.962000", "112841.964000", "112841.966000", "112841.969000", "112841.971000", "112841.974000", "112841.976000", "112841.979000", "112841.981000", "112841.984000", "112844.783000", "112844.786000"],
      "InstanceCreationTime": ["112621.991000", "112621.994000", "112621.996000", "112621.999000", "112622.001000", "112622.004000", "112622.006000", "112622.009000", "112622.011000", "112622.014000", "112622.016000", "112622.019000", "112622.021000", "112622.028000", "112622.031000", "112622.033000", "112622.036000", "112622.038000", "112622.041000", "112622.043000", "112622.046000", "112622.048000", "112622.051000", "112622.053000", "112622.056000", "112622.058000", "112622.060000", "112622.063000", "112622.065000", "112622.068000", "112622.070000", "112622.073000", "112622.075000", "112622.078000", "112641.909000", "112641.911000", "112641.914000", "112641.916000", "112641.919000", "112641.922000", "112641.924000", "112641.927000", "112641.929000", "112641.932000", "112641.934000", "112641.937000", "112641.939000", "112641.942000", "112641.944000", "112641.947000", "112641.955000", "112641.957000", "112641.959000", "112641.962000", "112641.964000", "112701.891000", "112701.894000", "112701.896000", "112701.899000", "112701.901000", "112701.904000", "112701.906000", "112701.909000", "112701.911000", "112701.914000", "112701.916000", "112701.919000", "112701.921000", "112701.923000", "112701.926000", "112701.928000", "112701.931000", "112701.933000", "112701.936000", "112701.938000", "112721.904000", "112721.907000", "112721.909000", "112721.912000", "112721.914000", "112721.917000", "112721.919000", "112721.922000", "112721.924000", "112721.926000", "112721.929000", "112721.931000", "112721.934000", "112721.936000", "112721.939000", "112721.941000", "112721.944000", "112721.946000", "112721.949000", "112721.951000", "112802.116000", "112802.119000", "112802.121000", "112802.124000", "112802.126000", "112802.129000", "112802.131000", "112802.134000", "112802.136000", "112802.139000", "112802.141000", "112802.144000", "112802.146000", "112802.149000", "112802.151000", "112802.154000", "112802.156000", "112802.158000", "112802.161000", "112802.163000", "112802.166000", "112802.168000", "112802.171000", "112802.173000", "112802.176000", "112802.178000", "112802.181000", "112802.183000", "112802.186000", "112802.188000", "112802.191000", "112841.919000", "112841.921000", "112841.924000", "112841.926000", "112841.929000", "112841.931000", "112841.934000", "112841.936000", "112841.939000", "112841.941000", "112841.944000", "112841.947000", "112841.949000", "112841.952000", "112841.954000", "112841.957000", "112841.959000", "112841.962000", "112841.964000", "112841.966000", "112841.969000", "112841.971000", "112841.974000", "112841.976000", "112841.979000", "112841.981000", "112841.984000", "112844.783000", "112844.786000"],
      "InstanceNumber": [1, 2, 3, 4, 5, 6, 7, 8, 9, 10, 11, 12, 13, 14, 15, 16, 17, 18, 19, 20, 21, 22, 23, 24, 25, 26, 27, 28, 29, 30, 31, 32, 33, 34, 35, 36, 37, 38, 39, 40, 41, 42, 43, 44, 45, 46, 47, 48, 49, 50, 51, 52, 53, 54, 55, 56, 57, 58, 59, 60, 61, 62, 63, 64, 65, 66, 67, 68, 69, 70, 71, 72, 73, 74, 75, 76, 77, 78, 79, 80, 81, 82, 83, 84, 85, 86, 87, 88, 89, 90, 91, 92, 93, 94, 95, 96, 97, 98, 99, 100, 101, 102, 103, 104, 105, 106, 107, 108, 109, 110, 111, 112, 113, 114, 115, 116, 117, 118, 119, 120, 121, 122, 123, 124, 125, 126, 127, 128, 129, 130, 131, 132, 133, 134, 135, 136, 137, 138, 139, 140, 141, 142, 143, 144, 145, 146, 147, 148, 149, 150, 151, 152, 153, 154, 155],
      "WindowCenter": [4768.0, 4810.0, 4812.0, 4762.0, 4752.0, 4752.0, 4752.0, 4754.0, 4758.0, 4794.0, 4796.0, 4798.0, 4798.0, 4796.0, 4796.0, 4764.0, 4760.0, 4734.0, 4756.0, 4758.0, 4764.0, 4762.0, 4762.0, 4758.0, 4736.0, 4758.0, 4758.0, 4762.0, 4766.0, 4768.0, 4768.0, 4772.0, 4764.0, 4766.0, 4800.0, 4776.0, 4764.0, 4728.0, 4730.0, 4750.0, 4754.0, 4754.0, 4768.0, 4770.0, 4794.0, 4770.0, 4798.0, 4798.0, 4764.0, 4758.0, 4734.0, 4748.0, 4752.0, 4756.0, 4760.0, 4764.0, 4770.0, 4768.0, 4772.0, 4766.0, 4762.0, 4760.0, 4760.0, 4756.0, 4762.0, 4758.0, 4768.0, 4766.0, 4760.0, 4772.0, 4794.0, 4738.0, 4756.0, 4730.0, 4754.0, 4760.0, 4762.0, 4790.0, 4798.0, 4792.0, 4796.0, 4794.0, 4764.0, 4762.0, 4754.0, 4756.0, 4758.0, 4760.0, 4764.0, 4766.0, 4770.0, 4766.0, 4772.0, 4764.0, 4766.0, 4758.0, 4766.0, 4768.0, 4762.0, 4768.0, 4760.0, 4764.0, 4762.0, 4760.0, 4762.0, 4762.0, 4764.0, 4762.0, 4768.0, 4762.0, 4768.0, 4762.0, 4768.0, 4764.0, 4762.0, 4768.0, 4762.0, 4772.0, 4762.0, 4762.0, 4760.0, 4758.0, 4768.0, 4764.0, 4760.0, 4766.0, 4760.0, 4766.0, 4766.0, 4760.0, 4798.0, 4864.0, 4806.0, 4760.0, 4752.0, 4770.0, 4772.0, 4772.0, 4756.0, 4790.0, 4824.0, 4832.0, 4828.0, 4798.0, 4760.0, 4758.0, 4752.0, 4756.0, 4760.0, 4760.0, 4800.0, 4798.0, 4796.0, 4806.0, 4802.0],
      "WindowWidth": [18526.0, 18540.0, 18542.0, 18522.0, 18530.0, 18544.0, 18538.0, 18530.0, 18520.0, 18556.0, 18548.0, 18548.0, 18554.0, 18552.0, 18548.0, 18522.0, 18526.0, 18490.0, 18530.0, 18518.0, 18520.0, 18520.0, 18518.0, 18514.0, 18490.0, 18520.0, 18522.0, 18528.0, 18526.0, 18524.0, 18516.0, 18524.0, 18520.0, 18526.0, 18546.0, 18516.0, 18514.0, 18498.0, 18494.0, 18528.0, 18528.0, 18526.0, 18528.0, 18524.0, 18554.0, 18522.0, 18546.0, 18546.0, 18528.0, 18522.0, 18488.0, 18530.0, 18528.0, 18524.0, 18524.0, 18530.0, 18522.0, 18524.0, 18520.0, 18524.0, 18524.0, 18522.0, 18530.0, 18524.0, 18524.0, 18522.0, 18524.0, 18520.0, 18524.0, 18522.0, 18548.0, 18488.0, 18538.0, 18498.0, 18534.0, 18526.0, 18524.0, 18558.0, 18556.0, 18554.0, 18548.0, 18552.0, 18524.0, 18532.0, 18528.0, 18522.0, 18526.0, 18522.0, 18524.0, 18522.0, 18520.0, 18522.0, 18526.0, 18526.0, 18526.0, 18526.0, 18528.0, 18524.0, 18526.0, 18528.0, 18526.0, 18526.0, 18524.0, 18522.0, 18520.0, 18528.0, 18526.0, 18526.0, 18528.0, 18526.0, 18524.0, 18522.0, 18522.0, 18522.0, 18522.0, 18528.0, 18524.0, 18522.0, 18522.0, 18526.0, 18522.0, 18524.0, 18528.0, 18522.0, 18528.0, 18526.0, 18524.0, 18530.0, 18524.0, 18518.0, 18552.0, 18600.0, 18550.0, 18522.0, 18538.0, 18572.0, 18580.0, 18574.0, 18528.0, 18554.0, 18586.0, 18590.0, 18586.0, 18556.0, 18520.0, 18526.0, 18528.0, 18536.0, 18530.0, 18528.0, 18552.0, 18556.0, 18554.0, 18550.0, 18544.0]
    },
    "slices": {}
  }
}