{
  "AcquisitionMatrixPE": 104,
  "AcquisitionNumber": 1,
  "AcquisitionTime": "11:30:9.560000",
  "BandwidthPerPixelPhaseEncode": 17.17,
  "BaseResolution": 104,
  "BodyPartExamined": "BRAIN",
  "CoilCombinationMethod": "Sum of Squares",
  "ConsistencyInfo": "N4_VE11C_LATEST_20160120",
  "ConversionSoftware": "dcm2niix",
  "ConversionSoftwareVersion": "v1.0.20211006",
  "DerivedVendorReportedEchoSpacing": 0.000560011,
  "DeviceSerialNumber": "167006",
  "DwellTime": 2.1e-06,
  "EchoTime": 0.037,
  "EchoTime1": 0.037,
  "EchoTime2": 0.001,
  "EchoTrainLength": 104,
  "EffectiveEchoSpacing": 0.000560011,
  "FlipAngle": 52,
  "HeudiconvVersion": "0.10.0",
  "ImageComments": "Unaliased MB4/PE3/LB",
  "ImageOrientationPatientDICOM": [0.999606, -0.00177298, 0.0280045, 0.0160522, 0.854708, -0.518861],
  "ImageOrientationText": "Tra>Cor(-31.3)>Sag(1.3)",
  "ImageType": [
    "ORIGINAL",
    "PRIMARY",
    "P",
    "MB",
    "ND",
    "MOSAIC",
    "PHASE"
],
  "ImagingFrequency": 123.259,
  "InPlanePhaseEncodingDirectionDICOM": "COL",
  "InstitutionAddress": "Chemin Queen-Mary 4565,Montreal,District,CA,H3W 1W5",
  "InstitutionName": "IUGM",
  "InstitutionalDepartmentName": "Department",
  "MRAcquisitionType": "2D",
  "MagneticFieldStrength": 3,
  "Manufacturer": "Siemens",
  "ManufacturersModelName": "Prisma_fit",
  "MatrixCoilMode": "SENSE",
  "Modality": "MR",
  "MultibandAccelerationFactor": 4,
  "PartialFourier": 1,
  "PatientPosition": "HFS",
  "PercentPhaseFOV": 100,
  "PercentSampling": 100,
  "PhaseEncodingDirection": "j",
  "PhaseEncodingSteps": 104,
  "PhaseResolution": 1,
  "PixelBandwidth": 2290,
  "ProcedureStepDescription": "localizers^fLoc",
  "ProtocolName": "task_fLoc_run-2",
  "PulseSequenceDetails": "%CustomerSeq%\\cmrr_mbep2d_bold",
  "ReceiveCoilActiveElements": "HC1-7;NC1,2",
  "ReceiveCoilName": "HeadNeck_64",
  "ReconMatrixPE": 104,
  "RepetitionTime": 1.49,
  "SAR": 0.0419104,
  "ScanOptions": "FS",
  "ScanningSequence": "EP",
  "SequenceName": "epfid2d1_104",
  "SequenceVariant": "SK\\SS",
  "SeriesDescription": "task_fLoc_run-2",
  "SeriesNumber": 14,
  "ShimSetting": [621, -7198, -8863, 250, 29, -195, -14, 3],
  "SliceThickness": 2,
  "SliceTiming": [0, 0.785, 0.0975, 0.8825, 0.195, 0.98, 0.295, 1.0775, 0.3925, 1.175, 0.49, 1.2725, 0.5875, 1.3725, 0.685, 0, 0.785, 0.0975, 0.8825, 0.195, 0.98, 0.295, 1.0775, 0.3925, 1.175, 0.49, 1.2725, 0.5875, 1.3725, 0.685, 0, 0.785, 0.0975, 0.8825, 0.195, 0.98, 0.295, 1.0775, 0.3925, 1.175, 0.49, 1.2725, 0.5875, 1.3725, 0.685, 0, 0.785, 0.0975, 0.8825, 0.195, 0.98, 0.295, 1.0775, 0.3925, 1.175, 0.49, 1.2725, 0.5875, 1.3725, 0.685],
  "SoftwareVersions": "syngo MR E11",
  "SpacingBetweenSlices": 2,
  "StationName": "MRC35049",
  "TaskName": "fLoc",
  "TotalReadoutTime": 0.0576811,
  "TxRefAmp": 254.638,
  "WipMemBlock": "95d0e578-e3a7-4257-ab3d-f3e3218ac007||Sequence: R016 ve11c/master r/e634e98; Dec 19 2017 11:00:25 by eja",
  "dcmmeta_affine": [
    [-1.9992125034332275, 0.03210430219769478, 0.04603147506713867, 103.83342742919922],
    [0.003545968094840646, 1.7094156742095947, -1.038212537765503, -50.47442626953125],
    [0.05600900948047638, 1.037722110748291, 1.7087994813919067, -95.387451171875],
    [0.0, 0.0, 0.0, 1.0]
],
  "dcmmeta_reorient_transform": [
    [0.0, -1.0, 0.0, 103.0],
    [1.0, 0.0, 0.0, 0.0],
    [0.0, 0.0, 1.0, 0.0],
    [0.0, 0.0, 0.0, 1.0]
],
  "dcmmeta_shape": [104, 104, 60, 155],
  "dcmmeta_slice_dim": 2,
  "dcmmeta_version": 0.6,
  "global": {
    "const": {
      "AcquisitionMatrix": [104, 0, 0, 104],
      "AngioFlag": "N",
      "BitsAllocated": 16,
      "BitsStored": 16,
      "BodyPartExamined": "BRAIN",
      "Columns": 832,
      "EchoNumbers": 1,
      "EchoTime": 37.0,
      "EchoTrainLength": 104,
      "FlipAngle": 52.0,
      "HighBit": 15,
      "ImageOrientationPatient": [0.99960622460788, -0.0017729840921, 0.02800450414813, 0.01605215126584, 0.8547078577705, -0.5188610664765],
      "ImagePositionPatient": [-846.53946852266, -746.53198213674, 368.84150476685],
      "ImageType": [
        "ORIGINAL",
        "PRIMARY",
        "P",
        "MB",
        "ND",
        "MOSAIC"
],
      "ImagedNucleus": "1H",
      "ImagingFrequency": 123.259095,
      "InPlanePhaseEncodingDirection": "COL",
      "LargestImagePixelValue": 4095,
      "MRAcquisitionType": "2D",
      "MagneticFieldStrength": 3.0,
      "Manufacturer": "SIEMENS",
      "ManufacturerModelName": "Prisma_fit",
      "Modality": "MR",
      "NumberOfAverages": 1.0,
      "NumberOfPhaseEncodingSteps": 104,
      "PercentPhaseFieldOfView": 100.0,
      "PercentSampling": 100.0,
      "PerformedProcedureStepStartTime": "112100.520000",
      "PhotometricInterpretation": "MONOCHROME2",
      "PixelBandwidth": 2290.0,
      "PixelRepresentation": 0,
      "PixelSpacing": [2.0, 2.0],
      "ProtocolName": "task_fLoc_run-2",
      "RepetitionTime": 1490.0,
      "RescaleIntercept": -4096.0,
      "RescaleSlope": 2.0,
      "RescaleType": "US",
      "Rows": 832,
      "SAR": 0.04191041616468,
      "SamplesPerPixel": 1,
      "ScanOptions": "FS",
      "ScanningSequence": "EP",
      "SequenceName": "epfid2d1_104",
      "SequenceVariant": [
        "SK",
        "SS"
],
      "SeriesDescription": "task_fLoc_run-2",
      "SeriesNumber": 14,
      "SeriesTime": "113141.160000",
      "SliceLocation": -52.907621977006,
      "SliceThickness": 2.0,
      "SmallestImagePixelValue": 0,
      "SoftwareVersions": "syngo MR E11",
      "SpacingBetweenSlices": 1.9999999939493,
      "SpecificCharacterSet": "ISO_IR 100",
      "StudyID": "1",
      "StudyTime": "112100.328000",
      "TransmitCoilName": "Body",
      "VariableFlipAngleFlag": "N",
      "WindowCenterWidthExplanation": "Algo1",
      "dBdt": 0.0},
    "slices": {}
  },
  "time": {
    "samples": {
      "AcquisitionNumber": [1, 2, 3, 4, 5, 6, 7, 8, 9, 10, 11, 12, 13, 14, 15, 16, 17, 18, 19, 20, 21, 22, 23, 24, 25, 26, 27, 28, 29, 30, 31, 32, 33, 34, 35, 36, 37, 38, 39, 40, 41, 42, 43, 44, 45, 46, 47, 48, 49, 50, 51, 52, 53, 54, 55, 56, 57, 58, 59, 60, 61, 62, 63, 64, 65, 66, 67, 68, 69, 70, 71, 72, 73, 74, 75, 76, 77, 78, 79, 80, 81, 82, 83, 84, 85, 86, 87, 88, 89, 90, 91, 92, 93, 94, 95, 96, 97, 98, 99, 100, 101, 102, 103, 104, 105, 106, 107, 108, 109, 110, 111, 112, 113, 114, 115, 116, 117, 118, 119, 120, 121, 122, 123, 124, 125, 126, 127, 128, 129, 130, 131, 132, 133, 134, 135, 136, 137, 138, 139, 140, 141, 142, 143, 144, 145, 146, 147, 148, 149, 150, 151, 152, 153, 154, 155],
      "AcquisitionTime": ["113009.560000", "113011.050000", "113012.540000", "113014.030000", "113015.520000", "113017.010000", "113018.500000", "113019.990000", "113021.480000", "113022.970000", "113024.460000", "113025.950000", "113027.440000", "113028.930000", "113030.420000", "113031.910000", "113033.400000", "113034.890000", "113036.380000", "113037.870000", "113039.360000", "113040.850000", "113042.340000", "113043.830000", "113045.320000", "113046.810000", "113048.300000", "113049.790000", "113051.280000", "113052.770000", "113054.260000", "113055.750000", "113057.240000", "113058.730000", "113100.220000", "113101.710000", "113103.200000", "113104.690000", "113106.180000", "113107.670000", "113109.160000", "113110.650000", "113112.140000", "113113.630000", "113115.120000", "113116.610000", "113118.100000", "113119.590000", "113121.080000", "113122.570000", "113124.060000", "113125.550000", "113127.040000", "113128.530000", "113130.020000", "113131.510000", "113133.000000", "113134.490000", "113135.980000", "113137.470000", "113138.960000", "113140.450000", "113141.940000", "113143.430000", "113144.920000", "113146.410000", "113147.900000", "113149.390000", "113150.880000", "113152.370000", "113153.860000", "113155.350000", "113156.840000", "113158.330000", "113159.820000", "113201.310000", "113202.800000", "113204.290000", "113205.780000", "113207.270000", "113208.760000", "113210.250000", "113211.740000", "113213.230000", "113214.720000", "113216.210000", "113217.700000", "113219.190000", "113220.680000", "113222.170000", "113223.660000", "113225.150000", "113226.640000", "113228.130000", "113229.620000", "113231.110000", "113232.600000", "113234.090000", "113235.580000", "113237.070000", "113238.560000", "113240.050000", "113241.540000", "113243.030000", "113244.520000", "113246.010000", "113247.500000", "113248.990000", "113250.480000", "113251.970000", "113253.460000", "113254.950000", "113256.440000", "113257.930000", "113259.420000", "113300.910000", "113302.400000", "113303.890000", "113305.380000", "113306.870000", "113308.360000", "113309.850000", "113311.340000", "113312.830000", "113314.320000", "113315.810000", "113317.300000", "113318.790000", "113320.280000", "113321.770000", "113323.260000", "113324.750000", "113326.240000", "113327.730000", "113329.220000", "113330.710000", "113332.200000", "113333.690000", "113335.180000", "113336.670000", "113338.160000", "113339.650000", "113341.140000", "113342.630000", "113344.120000", "113345.610000", "113347.100000", "113348.590000", "113350.080000", "113351.570000", "113353.060000", "113354.550000", "113356.040000", "113357.530000", "113359.020000"],
      "ContentTime": ["113141.162000", "113141.165000", "113141.168000", "113141.170000", "113141.173000", "113141.175000", "113141.178000", "113141.180000", "113141.183000", "113141.185000", "113141.195000", "113141.198000", "113141.200000", "113141.203000", "113141.205000", "113141.208000", "113141.210000", "113141.213000", "113141.215000", "113141.218000", "113141.221000", "113141.223000", "113141.226000", "113141.228000", "113141.231000", "113141.233000", "113141.236000", "113141.238000", "113141.241000", "113141.243000", "113141.246000", "113141.248000", "113141.251000", "113141.253000", "113141.256000", "113141.258000", "113141.261000", "113141.263000", "113141.266000", "113201.045000", "113201.048000", "113201.050000", "113201.053000", "113201.055000", "113201.058000", "113201.060000", "113201.063000", "113201.065000", "113201.075000", "113201.077000", "113201.080000", "113201.082000", "113201.085000", "113201.087000", "113201.090000", "113201.092000", "113201.095000", "113201.097000", "113201.100000", "113201.102000", "113221.033000", "113221.035000", "113221.038000", "113221.040000", "113221.043000", "113221.045000", "113221.048000", "113221.050000", "113221.053000", "113221.055000", "113221.058000", "113221.060000", "113221.063000", "113221.065000", "113221.068000", "113221.070000", "113221.073000", "113221.075000", "113221.078000", "113221.080000", "113241.032000", "113241.035000", "113241.037000", "113241.039000", "113241.042000", "113241.045000", "113241.047000", "113241.050000", "113241.052000", "113241.055000", "113241.057000", "113241.060000", "113241.062000", "113241.065000", "113241.067000", "113241.070000", "113241.072000", "113241.075000", "113241.077000", "113241.080000", "113321.079000", "113321.082000", "113321.084000", "113321.087000", "113321.089000", "113321.092000", "113321.095000", "113321.097000", "113321.100000", "113321.102000", "113321.105000", "113321.107000", "113321.110000", "113321.113000", "113321.115000", "113321.117000", "113321.120000", "113321.123000", "113321.125000", "113321.127000", "113321.130000", "113321.133000", "113321.135000", "113321.138000", "113321.140000", "113321.143000", "113321.145000", "113401.063000", "113401.066000", "113401.069000", "113401.071000", "113401.074000", "113401.076000", "113401.079000", "113401.081000", "113401.084000", "113401.086000", "113401.089000", "113401.091000", "113401.094000", "113401.096000", "113401.099000", "113401.101000", "113401.104000", "113401.107000", "113401.110000", "113401.113000", "113401.115000", "113401.118000", "113401.121000", "113401.124000", "113401.126000", "113401.129000", "113401.131000", "113401.310000"],
      "InstanceCreationTime": ["113141.162000", "113141.165000", "113141.168000", "113141.170000", "113141.173000", "113141.175000", "113141.178000", "113141.180000", "113141.183000", "113141.185000", "113141.195000", "113141.198000", "113141.200000", "113141.203000", "113141.205000", "113141.208000", "113141.210000", "113141.213000", "113141.215000", "113141.218000", "113141.221000", "113141.223000", "113141.226000", "113141.228000", "113141.231000", "113141.233000", "113141.236000", "113141.238000", "113141.241000", "113141.243000", "113141.246000", "113141.248000", "113141.251000", "113141.253000", "113141.256000", "113141.258000", "113141.261000", "113141.263000", "113141.266000", "113201.045000", "113201.048000", "113201.050000", "113201.053000", "113201.055000", "113201.058000", "113201.060000", "113201.063000", "113201.065000", "113201.075000", "113201.077000", "113201.080000", "113201.082000", "113201.085000", "113201.087000", "113201.090000", "113201.092000", "113201.095000", "113201.097000", "113201.100000", "113201.102000", "113221.033000", "113221.035000", "113221.038000", "113221.040000", "113221.043000", "113221.045000", "113221.048000", "113221.050000", "113221.053000", "113221.055000", "113221.058000", "113221.060000", "113221.063000", "113221.065000", "113221.068000", "113221.070000", "113221.073000", "113221.075000", "113221.078000", "113221.080000", "113241.032000", "113241.035000", "113241.037000", "113241.039000", "113241.042000", "113241.045000", "113241.047000", "113241.050000", "113241.052000", "113241.055000", "113241.057000", "113241.060000", "113241.062000", "113241.065000", "113241.067000", "113241.070000", "113241.072000", "113241.075000", "113241.077000", "113241.080000", "113321.079000", "113321.082000", "113321.084000", "113321.087000", "113321.089000", "113321.092000", "113321.095000", "113321.097000", "113321.100000", "113321.102000", "113321.105000", "113321.107000", "113321.110000", "113321.113000", "113321.115000", "113321.117000", "113321.120000", "113321.123000", "113321.125000", "113321.127000", "113321.130000", "113321.133000", "113321.135000", "113321.138000", "113321.140000", "113321.143000", "113321.145000", "113401.063000", "113401.066000", "113401.069000", "113401.071000", "113401.074000", "113401.076000", "113401.079000", "113401.081000", "113401.084000", "113401.086000", "113401.089000", "113401.091000", "113401.094000", "113401.096000", "113401.099000", "113401.101000", "113401.104000", "113401.107000", "113401.110000", "113401.113000", "113401.115000", "113401.118000", "113401.121000", "113401.124000", "113401.126000", "113401.129000", "113401.131000", "113401.310000"],
      "InstanceNumber": [1, 2, 3, 4, 5, 6, 7, 8, 9, 10, 11, 12, 13, 14, 15, 16, 17, 18, 19, 20, 21, 22, 23, 24, 25, 26, 27, 28, 29, 30, 31, 32, 33, 34, 35, 36, 37, 38, 39, 40, 41, 42, 43, 44, 45, 46, 47, 48, 49, 50, 51, 52, 53, 54, 55, 56, 57, 58, 59, 60, 61, 62, 63, 64, 65, 66, 67, 68, 69, 70, 71, 72, 73, 74, 75, 76, 77, 78, 79, 80, 81, 82, 83, 84, 85, 86, 87, 88, 89, 90, 91, 92, 93, 94, 95, 96, 97, 98, 99, 100, 101, 102, 103, 104, 105, 106, 107, 108, 109, 110, 111, 112, 113, 114, 115, 116, 117, 118, 119, 120, 121, 122, 123, 124, 125, 126, 127, 128, 129, 130, 131, 132, 133, 134, 135, 136, 137, 138, 139, 140, 141, 142, 143, 144, 145, 146, 147, 148, 149, 150, 151, 152, 153, 154, 155],
      "WindowCenter": [4834.0, 4834.0, 4832.0, 4830.0, 4830.0, 4832.0, 4832.0, 4832.0, 4860.0, 4862.0, 4860.0, 4834.0, 4826.0, 4830.0, 4830.0, 4830.0, 4832.0, 4836.0, 4860.0, 4858.0, 4864.0, 4860.0, 4840.0, 4828.0, 4802.0, 4796.0, 4806.0, 4828.0, 4838.0, 4864.0, 4862.0, 4836.0, 4830.0, 4836.0, 4836.0, 4830.0, 4834.0, 4834.0, 4836.0, 4830.0, 4804.0, 4830.0, 4864.0, 4832.0, 4858.0, 4860.0, 4838.0, 4832.0, 4802.0, 4828.0, 4828.0, 4832.0, 4830.0, 4832.0, 4860.0, 4834.0, 4862.0, 4866.0, 4830.0, 4828.0, 4828.0, 4806.0, 4802.0, 4834.0, 4828.0, 4826.0, 4832.0, 4836.0, 4858.0, 4858.0, 4862.0, 4834.0, 4836.0, 4828.0, 4832.0, 4826.0, 4828.0, 4836.0, 4828.0, 4858.0, 4832.0, 4834.0, 4862.0, 4834.0, 4836.0, 4832.0, 4832.0, 4828.0, 4834.0, 4834.0, 4838.0, 4834.0, 4832.0, 4834.0, 4862.0, 4828.0, 4836.0, 4832.0, 4832.0, 4840.0, 4832.0, 4834.0, 4834.0, 4834.0, 4834.0, 4838.0, 4834.0, 4804.0, 4798.0, 4830.0, 4832.0, 4860.0, 4862.0, 4856.0, 4862.0, 4836.0, 4830.0, 4832.0, 4800.0, 4830.0, 4826.0, 4834.0, 4858.0, 4834.0, 4860.0, 4860.0, 4834.0, 4836.0, 4826.0, 4832.0, 4832.0, 4834.0, 4834.0, 4830.0, 4864.0, 4894.0, 4896.0, 4830.0, 4758.0, 4752.0, 4758.0, 4762.0, 4834.0, 4858.0, 4830.0, 4828.0, 4832.0, 4860.0, 4830.0, 4860.0, 4874.0, 4838.0, 4770.0, 4758.0, 4754.0],
      "WindowWidth": [18590.0, 18592.0, 18592.0, 18586.0, 18580.0, 18586.0, 18590.0, 18582.0, 18616.0, 18616.0, 18620.0, 18590.0, 18580.0, 18588.0, 18584.0, 18588.0, 18588.0, 18584.0, 18622.0, 18618.0, 18614.0, 18614.0, 18586.0, 18588.0, 18554.0, 18548.0, 18556.0, 18592.0, 18592.0, 18616.0, 18618.0, 18584.0, 18586.0, 18586.0, 18592.0, 18586.0, 18590.0, 18584.0, 18588.0, 18586.0, 18556.0, 18584.0, 18616.0, 18586.0, 18612.0, 18614.0, 18590.0, 18584.0, 18552.0, 18584.0, 18584.0, 18584.0, 18592.0, 18588.0, 18614.0, 18594.0, 18612.0, 18618.0, 18586.0, 18580.0, 18580.0, 18552.0, 18558.0, 18582.0, 18588.0, 18578.0, 18590.0, 18592.0, 18622.0, 18624.0, 18614.0, 18590.0, 18588.0, 18588.0, 18590.0, 18588.0, 18586.0, 18590.0, 18590.0, 18618.0, 18590.0, 18584.0, 18620.0, 18594.0, 18588.0, 18590.0, 18586.0, 18590.0, 18588.0, 18586.0, 18588.0, 18586.0, 18588.0, 18594.0, 18616.0, 18594.0, 18594.0, 18592.0, 18590.0, 18590.0, 18586.0, 18584.0, 18592.0, 18586.0, 18588.0, 18588.0, 18588.0, 18556.0, 18552.0, 18592.0, 18588.0, 18624.0, 18620.0, 18622.0, 18616.0, 18592.0, 18590.0, 18588.0, 18556.0, 18588.0, 18588.0, 18590.0, 18616.0, 18594.0, 18618.0, 18618.0, 18594.0, 18588.0, 18588.0, 18590.0, 18588.0, 18590.0, 18588.0, 18590.0, 18616.0, 18636.0, 18638.0, 18588.0, 18530.0, 18532.0, 18534.0, 18524.0, 18598.0, 18626.0, 18576.0, 18568.0, 18582.0, 18624.0, 18596.0, 18616.0, 18608.0, 18578.0, 18522.0, 18528.0, 18532.0]
    },
    "slices": {}
  }
}