{
  "AcquisitionMatrixPE": 104,
  "AcquisitionNumber": 1,
  "AcquisitionTime": "11:33:10.632500",
  "BandwidthPerPixelPhaseEncode": 17.17,
  "BaseResolution": 104,
  "BodyPartExamined": "BRAIN",
  "CoilCombinationMethod": "Sum of Squares",
  "ConsistencyInfo": "N4_VE11C_LATEST_20160120",
  "ConversionSoftware": "dcm2niix",
  "ConversionSoftwareVersion": "v1.0.20211006",
  "DerivedVendorReportedEchoSpacing": 0.000560011,
  "DeviceSerialNumber": "167006",
  "DwellTime": 2.1e-06,
  "EchoTime": 0.037,
  "EchoTrainLength": 104,
  "EffectiveEchoSpacing": 0.000560011,
  "FlipAngle": 52,
  "HeudiconvVersion": "0.10.0",
  "ImageComments": "Unaliased MB4/PE3/LB",
  "ImageOrientationPatientDICOM": [0.999371, 0.00580122, 0.0349906, 0.0136059, 0.848357, -0.52925],
  "ImageOrientationText": "Tra>Cor(-32.0)>Sag(1.9)",
  "ImageType": [
    "ORIGINAL",
    "PRIMARY",
    "M",
    "MB",
    "ND",
    "MOSAIC"
],
  "ImagingFrequency": 123.259,
  "InPlanePhaseEncodingDirectionDICOM": "COL",
  "InstitutionAddress": "Chemin Queen-Mary 4565,Montreal,District,CA,H3W 1W5",
  "InstitutionName": "IUGM",
  "InstitutionalDepartmentName": "Department",
  "MRAcquisitionType": "2D",
  "MagneticFieldStrength": 3,
  "Manufacturer": "Siemens",
  "ManufacturersModelName": "Prisma_fit",
  "MatrixCoilMode": "SENSE",
  "Modality": "MR",
  "MultibandAccelerationFactor": 4,
  "PartialFourier": 1,
  "PatientPosition": "HFS",
  "PercentPhaseFOV": 100,
  "PercentSampling": 100,
  "PhaseEncodingDirection": "j",
  "PhaseEncodingSteps": 104,
  "PhaseResolution": 1,
  "PixelBandwidth": 2290,
  "ProcedureStepDescription": "localizers^fLoc",
  "ProtocolName": "task_fLoc_run-1",
  "PulseSequenceDetails": "%CustomerSeq%\\cmrr_mbep2d_bold",
  "ReceiveCoilActiveElements": "HC1-7;NC1,2",
  "ReceiveCoilName": "HeadNeck_64",
  "ReconMatrixPE": 104,
  "RepetitionTime": 1.49,
  "SAR": 0.0522063,
  "ScanOptions": "FS",
  "ScanningSequence": "EP",
  "SequenceName": "epfid2d1_104",
  "SequenceVariant": "SK\\SS",
  "SeriesDescription": "task_fLoc_run-1",
  "SeriesNumber": 10,
  "ShimSetting": [624, -7184, -8877, 282, 34, -255, -30, -7],
  "SliceThickness": 2,
  "SliceTiming": [0, 0.7825, 0.0975, 0.88, 0.195, 0.98, 0.2925, 1.0775, 0.39, 1.175, 0.49, 1.2725, 0.5875, 1.37, 0.685, 0, 0.7825, 0.0975, 0.88, 0.195, 0.98, 0.2925, 1.0775, 0.39, 1.175, 0.49, 1.2725, 0.5875, 1.37, 0.685, 0, 0.7825, 0.0975, 0.88, 0.195, 0.98, 0.2925, 1.0775, 0.39, 1.175, 0.49, 1.2725, 0.5875, 1.37, 0.685, 0, 0.7825, 0.0975, 0.88, 0.195, 0.98, 0.2925, 1.0775, 0.39, 1.175, 0.49, 1.2725, 0.5875, 1.37, 0.685],
  "SoftwareVersions": "syngo MR E11",
  "SpacingBetweenSlices": 2,
  "StationName": "MRC35049",
  "TaskName": "fLoc",
  "TotalReadoutTime": 0.0576811,
  "TxRefAmp": 294.119,
  "WipMemBlock": "79dee755-4574-4d33-bae0-0a1a215ed27c||Sequence: R016 ve11c/master r/e634e98; Dec 19 2017 11:00:25 by eja",
  "dcmmeta_affine": [
    [-1.998741626739502, 0.027211712673306465, 0.06550968438386917, 103.88021087646484],
    [-0.011602443642914295, 1.6967134475708008, -1.0587865114212036, -47.97393035888672],
    [0.06998127698898315, 1.0585002899169922, 1.6954880952835083, -106.49308776855469],
    [0.0, 0.0, 0.0, 1.0]
],
  "dcmmeta_reorient_transform": [
    [0.0, -1.0, 0.0, 103.0],
    [1.0, 0.0, 0.0, 0.0],
    [0.0, 0.0, 1.0, 0.0],
    [0.0, 0.0, 0.0, 1.0]
],
  "dcmmeta_shape": [104, 104, 60, 155],
  "dcmmeta_slice_dim": 2,
  "dcmmeta_version": 0.6,
  "global": {
    "const": {
      "AcquisitionMatrix": [104, 0, 0, 104],
      "AngioFlag": "N",
      "BitsAllocated": 16,
      "BitsStored": 16,
      "BodyPartExamined": "BRAIN",
      "Columns": 832,
      "EchoNumbers": 1,
      "EchoTime": 37.0,
      "EchoTrainLength": 104,
      "FlipAngle": 52.0,
      "HighBit": 15,
      "ImageOrientationPatient": [0.9993708025287, 0.00580122198218, 0.03499063984349, 0.01360585675989, 0.84835673456345, -0.529250159738],
      "ImagePositionPatient": [-844.13002190479, -748.61454756203, 362.35337230392],
      "ImageType": [
        "ORIGINAL",
        "PRIMARY",
        "M",
        "MB",
        "ND",
        "MOSAIC"
],
      "ImagedNucleus": "1H",
      "ImagingFrequency": 123.258934,
      "InPlanePhaseEncodingDirection": "COL",
      "MRAcquisitionType": "2D",
      "MagneticFieldStrength": 3.0,
      "Manufacturer": "SIEMENS",
      "ManufacturerModelName": "Prisma_fit",
      "Modality": "MR",
      "NumberOfAverages": 1.0,
      "NumberOfPhaseEncodingSteps": 104,
      "PercentPhaseFieldOfView": 100.0,
      "PercentSampling": 100.0,
      "PerformedProcedureStepStartTime": "112940.579000",
      "PhotometricInterpretation": "MONOCHROME2",
      "PixelBandwidth": 2290.0,
      "PixelRepresentation": 0,
      "PixelSpacing": [2.0, 2.0],
      "ProtocolName": "task_fLoc_run-1",
      "RepetitionTime": 1490.0,
      "Rows": 832,
      "SAR": 0.05220632056529,
      "SamplesPerPixel": 1,
      "ScanOptions": "FS",
      "ScanningSequence": "EP",
      "SequenceName": "epfid2d1_104",
      "SequenceVariant": [
        "SK",
        "SS"
],
      "SeriesDescription": "task_fLoc_run-1",
      "SeriesNumber": 10,
      "SeriesTime": "113434.769000",
      "SliceLocation": -61.479226199737,
      "SliceThickness": 2.0,
      "SmallestImagePixelValue": 0,
      "SoftwareVersions": "syngo MR E11",
      "SpacingBetweenSlices": 1.9999999952753,
      "SpecificCharacterSet": "ISO_IR 100",
      "StudyID": "1",
      "StudyTime": "112940.499000",
      "TransmitCoilName": "Body",
      "VariableFlipAngleFlag": "N",
      "WindowCenterWidthExplanation": "Algo1",
      "dBdt": 0.0},
    "slices": {}
  },
  "time": {
    "samples": {
      "AcquisitionNumber": [1, 2, 3, 4, 5, 6, 7, 8, 9, 10, 11, 12, 13, 14, 15, 16, 17, 18, 19, 20, 21, 22, 23, 24, 25, 26, 27, 28, 29, 30, 31, 32, 33, 34, 35, 36, 37, 38, 39, 40, 41, 42, 43, 44, 45, 46, 47, 48, 49, 50, 51, 52, 53, 54, 55, 56, 57, 58, 59, 60, 61, 62, 63, 64, 65, 66, 67, 68, 69, 70, 71, 72, 73, 74, 75, 76, 77, 78, 79, 80, 81, 82, 83, 84, 85, 86, 87, 88, 89, 90, 91, 92, 93, 94, 95, 96, 97, 98, 99, 100, 101, 102, 103, 104, 105, 106, 107, 108, 109, 110, 111, 112, 113, 114, 115, 116, 117, 118, 119, 120, 121, 122, 123, 124, 125, 126, 127, 128, 129, 130, 131, 132, 133, 134, 135, 136, 137, 138, 139, 140, 141, 142, 143, 144, 145, 146, 147, 148, 149, 150, 151, 152, 153, 154, 155],
      "AcquisitionTime": ["113310.632500", "113312.122500", "113313.612500", "113315.102500", "113316.592500", "113318.082500", "113319.572500", "113321.062500", "113322.552500", "113324.042500", "113325.532500", "113327.022500", "113328.512500", "113330.002500", "113331.492500", "113332.982500", "113334.472500", "113335.962500", "113337.452500", "113338.942500", "113340.432500", "113341.922500", "113343.412500", "113344.902500", "113346.392500", "113347.882500", "113349.372500", "113350.862500", "113352.352500", "113353.842500", "113355.332500", "113356.822500", "113358.312500", "113359.802500", "113401.292500", "113402.782500", "113404.272500", "113405.762500", "113407.252500", "113408.742500", "113410.232500", "113411.722500", "113413.212500", "113414.702500", "113416.192500", "113417.682500", "113419.172500", "113420.662500", "113422.152500", "113423.642500", "113425.132500", "113426.622500", "113428.112500", "113429.602500", "113431.092500", "113432.582500", "113434.072500", "113435.562500", "113437.052500", "113438.542500", "113440.032500", "113441.522500", "113443.012500", "113444.502500", "113445.992500", "113447.482500", "113448.972500", "113450.462500", "113451.952500", "113453.442500", "113454.932500", "113456.422500", "113457.912500", "113459.402500", "113500.892500", "113502.382500", "113503.872500", "113505.362500", "113506.852500", "113508.342500", "113509.832500", "113511.322500", "113512.812500", "113514.302500", "113515.792500", "113517.282500", "113518.772500", "113520.262500", "113521.752500", "113523.242500", "113524.732500", "113526.222500", "113527.712500", "113529.202500", "113530.692500", "113532.182500", "113533.672500", "113535.162500", "113536.652500", "113538.142500", "113539.632500", "113541.122500", "113542.612500", "113544.102500", "113545.592500", "113547.082500", "113548.572500", "113550.062500", "113551.552500", "113553.042500", "113554.532500", "113556.022500", "113557.512500", "113559.002500", "113600.492500", "113601.982500", "113603.472500", "113604.962500", "113606.452500", "113607.942500", "113609.432500", "113610.922500", "113612.412500", "113613.902500", "113615.392500", "113616.882500", "113618.372500", "113619.862500", "113621.352500", "113622.842500", "113624.332500", "113625.822500", "113627.312500", "113628.802500", "113630.292500", "113631.782500", "113633.272500", "113634.762500", "113636.252500", "113637.742500", "113639.232500", "113640.722500", "113642.212500", "113643.702500", "113645.192500", "113646.682500", "113648.172500", "113649.662500", "113651.152500", "113652.642500", "113654.132500", "113655.622500", "113657.112500", "113658.602500", "113700.092500"],
      "ContentTime": ["113434.772000", "113434.776000", "113434.780000", "113434.783000", "113434.786000", "113434.790000", "113434.793000", "113434.796000", "113434.800000", "113434.803000", "113434.806000", "113434.809000", "113434.813000", "113434.816000", "113434.819000", "113434.823000", "113434.826000", "113434.829000", "113434.833000", "113434.836000", "113434.843000", "113434.846000", "113434.849000", "113434.853000", "113434.856000", "113434.859000", "113434.862000", "113434.866000", "113454.736000", "113454.740000", "113454.743000", "113454.746000", "113454.750000", "113454.753000", "113454.756000", "113454.760000", "113454.770000", "113454.774000", "113454.777000", "113454.780000", "113454.784000", "113454.787000", "113454.790000", "113454.794000", "113454.797000", "113454.800000", "113454.804000", "113454.807000", "113514.736000", "113514.740000", "113514.743000", "113514.746000", "113514.756000", "113514.760000", "113514.763000", "113514.766000", "113514.770000", "113514.773000", "113514.777000", "113514.780000", "113514.784000", "113514.787000", "113514.791000", "113514.794000", "113514.797000", "113514.800000", "113514.804000", "113514.807000", "113534.735000", "113534.739000", "113534.742000", "113534.745000", "113534.749000", "113534.752000", "113534.755000", "113534.759000", "113534.762000", "113534.765000", "113534.769000", "113534.911000", "113534.914000", "113534.917000", "113534.921000", "113534.924000", "113534.927000", "113534.931000", "113534.934000", "113534.942000", "113534.946000", "113554.735000", "113554.739000", "113554.742000", "113554.763000", "113554.766000", "113554.894000", "113554.897000", "113554.901000", "113554.904000", "113554.907000", "113554.911000", "113554.914000", "113554.917000", "113554.921000", "113554.924000", "113554.927000", "113554.931000", "113554.934000", "113554.937000", "113554.940000", "113634.736000", "113634.740000", "113634.743000", "113634.747000", "113634.750000", "113634.753000", "113634.757000", "113634.760000", "113634.768000", "113634.772000", "113634.775000", "113634.778000", "113634.782000", "113634.785000", "113634.788000", "113634.792000", "113634.795000", "113634.798000", "113634.802000", "113634.805000", "113634.808000", "113634.812000", "113634.816000", "113634.819000", "113634.822000", "113634.825000", "113634.829000", "113702.342000", "113702.346000", "113702.349000", "113702.352000", "113702.356000", "113702.359000", "113702.363000", "113702.366000", "113702.369000", "113702.372000", "113702.376000", "113702.379000", "113702.383000", "113702.386000", "113702.389000", "113702.393000", "113702.396000", "113702.399000", "113702.403000"],
      "InstanceCreationTime": ["113434.772000", "113434.776000", "113434.780000", "113434.783000", "113434.786000", "113434.790000", "113434.793000", "113434.796000", "113434.800000", "113434.803000", "113434.806000", "113434.809000", "113434.813000", "113434.816000", "113434.819000", "113434.823000", "113434.826000", "113434.829000", "113434.833000", "113434.836000", "113434.843000", "113434.846000", "113434.849000", "113434.853000", "113434.856000", "113434.859000", "113434.862000", "113434.866000", "113454.736000", "113454.740000", "113454.743000", "113454.746000", "113454.750000", "113454.753000", "113454.756000", "113454.760000", "113454.770000", "113454.774000", "113454.777000", "113454.780000", "113454.784000", "113454.787000", "113454.790000", "113454.794000", "113454.797000", "113454.800000", "113454.804000", "113454.807000", "113514.736000", "113514.740000", "113514.743000", "113514.746000", "113514.756000", "113514.760000", "113514.763000", "113514.766000", "113514.770000", "113514.773000", "113514.777000", "113514.780000", "113514.784000", "113514.787000", "113514.791000", "113514.794000", "113514.797000", "113514.800000", "113514.804000", "113514.807000", "113534.735000", "113534.739000", "113534.742000", "113534.745000", "113534.749000", "113534.752000", "113534.755000", "113534.759000", "113534.762000", "113534.765000", "113534.769000", "113534.911000", "113534.914000", "113534.917000", "113534.921000", "113534.924000", "113534.927000", "113534.931000", "113534.934000", "113534.942000", "113534.946000", "113554.735000", "113554.739000", "113554.742000", "113554.763000", "113554.766000", "113554.894000", "113554.897000", "113554.901000", "113554.904000", "113554.907000", "113554.911000", "113554.914000", "113554.917000", "113554.921000", "113554.924000", "113554.927000", "113554.931000", "113554.934000", "113554.937000", "113554.940000", "113634.736000", "113634.740000", "113634.743000", "113634.747000", "113634.750000", "113634.753000", "113634.757000", "113634.760000", "113634.768000", "113634.772000", "113634.775000", "113634.778000", "113634.782000", "113634.785000", "113634.788000", "113634.792000", "113634.795000", "113634.798000", "113634.802000", "113634.805000", "113634.808000", "113634.812000", "113634.816000", "113634.819000", "113634.822000", "113634.825000", "113634.829000", "113702.342000", "113702.346000", "113702.349000", "113702.352000", "113702.356000", "113702.359000", "113702.363000", "113702.366000", "113702.369000", "113702.372000", "113702.376000", "113702.379000", "113702.383000", "113702.386000", "113702.389000", "113702.393000", "113702.396000", "113702.399000", "113702.403000"],
      "InstanceNumber": [1, 2, 3, 4, 5, 6, 7, 8, 9, 10, 11, 12, 13, 14, 15, 16, 17, 18, 19, 20, 21, 22, 23, 24, 25, 26, 27, 28, 29, 30, 31, 32, 33, 34, 35, 36, 37, 38, 39, 40, 41, 42, 43, 44, 45, 46, 47, 48, 49, 50, 51, 52, 53, 54, 55, 56, 57, 58, 59, 60, 61, 62, 63, 64, 65, 66, 67, 68, 69, 70, 71, 72, 73, 74, 75, 76, 77, 78, 79, 80, 81, 82, 83, 84, 85, 86, 87, 88, 89, 90, 91, 92, 93, 94, 95, 96, 97, 98, 99, 100, 101, 102, 103, 104, 105, 106, 107, 108, 109, 110, 111, 112, 113, 114, 115, 116, 117, 118, 119, 120, 121, 122, 123, 124, 125, 126, 127, 128, 129, 130, 131, 132, 133, 134, 135, 136, 137, 138, 139, 140, 141, 142, 143, 144, 145, 146, 147, 148, 149, 150, 151, 152, 153, 154, 155],
      "LargestImagePixelValue": [42070, 38462, 38342, 38608, 38105, 37988, 38047, 38175, 38319, 38208, 38186, 37681, 37328, 37779, 37490, 38071, 37978, 37838, 38696, 37902, 37688, 37591, 37893, 37458, 37715, 39077, 38208, 37713, 38024, 38301, 38310, 38495, 37927, 37456, 37945, 37362, 37687, 37471, 39346, 38182, 38059, 37628, 38083, 37541, 38010, 37677, 37086, 37515, 37484, 37326, 37405, 37620, 37573, 37195, 37191, 37626, 40339, 37667, 37805, 37365, 37685, 37917, 38034, 38243, 38841, 37660, 37354, 37619, 37731, 37624, 37988, 37596, 38226, 37347, 38118, 37462, 38166, 37589, 37726, 37532, 38226, 38193, 38509, 37751, 38033, 37610, 38219, 37951, 38603, 39140, 38740, 38680, 36974, 37079, 37774, 37198, 38167, 38564, 39175, 38437, 38739, 38155, 38399, 42490, 38491, 37796, 38508, 38559, 38898, 38708, 38580, 38690, 38833, 38661, 38392, 38550, 38433, 38211, 38900, 38538, 38160, 38366, 38466, 38041, 38727, 38236, 38756, 38386, 38790, 38852, 38350, 38790, 37863, 37625, 38361, 38025, 39020, 42121, 39806, 39182, 38437, 38389, 37620, 38082, 38157, 38389, 39160, 38515, 38215, 44650, 38975, 39332, 38427, 37687, 37146],
      "WindowCenter": [10557.0, 10468.0, 10435.0, 10418.0, 10383.0, 10377.0, 10392.0, 10413.0, 10430.0, 10420.0, 10420.0, 10420.0, 10416.0, 10423.0, 10426.0, 10430.0, 10436.0, 10425.0, 10433.0, 10418.0, 10417.0, 10428.0, 10444.0, 10441.0, 10448.0, 10463.0, 10437.0, 10440.0, 10446.0, 10437.0, 10416.0, 10380.0, 10373.0, 10394.0, 10442.0, 10452.0, 10452.0, 10435.0, 10451.0, 10440.0, 10432.0, 10423.0, 10427.0, 10413.0, 10423.0, 10420.0, 10413.0, 10415.0, 10430.0, 10434.0, 10426.0, 10422.0, 10406.0, 10407.0, 10424.0, 10430.0, 10457.0, 10430.0, 10441.0, 10435.0, 10425.0, 10423.0, 10419.0, 10417.0, 10430.0, 10421.0, 10423.0, 10437.0, 10435.0, 10433.0, 10422.0, 10406.0, 10417.0, 10429.0, 10463.0, 10464.0, 10469.0, 10454.0, 10443.0, 10440.0, 10455.0, 10450.0, 10438.0, 10422.0, 10435.0, 10447.0, 10469.0, 10490.0, 10489.0, 10468.0, 10431.0, 10409.0, 10391.0, 10414.0, 10437.0, 10436.0, 10438.0, 10426.0, 10419.0, 10403.0, 10403.0, 10398.0, 10409.0, 10469.0, 10442.0, 10443.0, 10447.0, 10435.0, 10425.0, 10430.0, 10440.0, 10458.0, 10462.0, 10460.0, 10448.0, 10455.0, 10463.0, 10460.0, 10461.0, 10437.0, 10420.0, 10432.0, 10461.0, 10468.0, 10480.0, 10461.0, 10462.0, 10454.0, 10470.0, 10473.0, 10472.0, 10480.0, 10470.0, 10471.0, 10474.0, 10465.0, 10482.0, 10518.0, 10483.0, 10457.0, 10430.0, 10429.0, 10438.0, 10445.0, 10429.0, 10416.0, 10412.0, 10406.0, 10406.0, 10509.0, 10458.0, 10439.0, 10395.0, 10386.0, 10438.0],
      "WindowWidth": [22586.0, 22365.0, 22270.0, 22220.0, 22143.0, 22125.0, 22156.0, 22204.0, 22239.0, 22223.0, 22221.0, 22222.0, 22216.0, 22231.0, 22239.0, 22244.0, 22260.0, 22237.0, 22251.0, 22222.0, 22218.0, 22242.0, 22276.0, 22274.0, 22286.0, 22311.0, 22256.0, 22260.0, 22272.0, 22250.0, 22205.0, 22127.0, 22111.0, 22158.0, 22264.0, 22293.0, 22290.0, 22253.0, 22281.0, 22258.0, 22244.0, 22225.0, 22229.0, 22203.0, 22219.0, 22217.0, 22202.0, 22208.0, 22238.0, 22250.0, 22232.0, 22221.0, 22188.0, 22190.0, 22227.0, 22235.0, 22285.0, 22234.0, 22260.0, 22248.0, 22226.0, 22220.0, 22209.0, 22204.0, 22232.0, 22216.0, 22223.0, 22251.0, 22251.0, 22244.0, 22220.0, 22185.0, 22207.0, 22233.0, 22307.0, 22315.0, 22323.0, 22291.0, 22264.0, 22258.0, 22289.0, 22280.0, 22251.0, 22220.0, 22245.0, 22272.0, 22320.0, 22364.0, 22357.0, 22306.0, 22227.0, 22177.0, 22149.0, 22200.0, 22243.0, 22244.0, 22245.0, 22217.0, 22199.0, 22165.0, 22165.0, 22160.0, 22180.0, 22299.0, 22253.0, 22259.0, 22266.0, 22239.0, 22214.0, 22227.0, 22250.0, 22289.0, 22301.0, 22295.0, 22273.0, 22285.0, 22303.0, 22300.0, 22297.0, 22246.0, 22210.0, 22232.0, 22297.0, 22320.0, 22341.0, 22303.0, 22301.0, 22285.0, 22316.0, 22325.0, 22324.0, 22338.0, 22325.0, 22323.0, 22327.0, 22309.0, 22338.0, 22408.0, 22339.0, 22283.0, 22228.0, 22225.0, 22249.0, 22263.0, 22225.0, 22192.0, 22179.0, 22173.0, 22176.0, 22385.0, 22288.0, 22243.0, 22150.0, 22131.0, 22247.0]
    },
    "slices": {}
  }
}