{
  "AcquisitionMatrixPE": 104,
  "AcquisitionNumber": 1,
  "AcquisitionTime": "11:43:0.245000",
  "BandwidthPerPixelPhaseEncode": 17.17,
  "BaseResolution": 104,
  "BodyPartExamined": "BRAIN",
  "CoilCombinationMethod": "Sum of Squares",
  "ConsistencyInfo": "N4_VE11C_LATEST_20160120",
  "ConversionSoftware": "dcm2niix",
  "ConversionSoftwareVersion": "v1.0.20211006",
  "DerivedVendorReportedEchoSpacing": 0.000560011,
  "DeviceSerialNumber": "167006",
  "DwellTime": 2.1e-06,
  "EchoTime": 0.037,
  "EchoTrainLength": 104,
  "EffectiveEchoSpacing": 0.000560011,
  "FlipAngle": 52,
  "HeudiconvVersion": "0.10.0",
  "ImageComments": "Unaliased MB4/PE3/LB",
  "ImageOrientationPatientDICOM": [0.999371, 0.00580122, 0.0349906, 0.0136059, 0.848357, -0.52925],
  "ImageOrientationText": "Tra>Cor(-32.0)>Sag(1.9)",
  "ImageType": [
    "ORIGINAL",
    "PRIMARY",
    "M",
    "MB",
    "ND",
    "MOSAIC"
],
  "ImagingFrequency": 123.259,
  "InPlanePhaseEncodingDirectionDICOM": "COL",
  "InstitutionAddress": "Chemin Queen-Mary 4565,Montreal,District,CA,H3W 1W5",
  "InstitutionName": "IUGM",
  "InstitutionalDepartmentName": "Department",
  "MRAcquisitionType": "2D",
  "MagneticFieldStrength": 3,
  "Manufacturer": "Siemens",
  "ManufacturersModelName": "Prisma_fit",
  "MatrixCoilMode": "SENSE",
  "Modality": "MR",
  "MultibandAccelerationFactor": 4,
  "PartialFourier": 1,
  "PatientPosition": "HFS",
  "PercentPhaseFOV": 100,
  "PercentSampling": 100,
  "PhaseEncodingDirection": "j",
  "PhaseEncodingSteps": 104,
  "PhaseResolution": 1,
  "PixelBandwidth": 2290,
  "ProcedureStepDescription": "localizers^fLoc",
  "ProtocolName": "task_fLoc_run-2",
  "PulseSequenceDetails": "%CustomerSeq%\\cmrr_mbep2d_bold",
  "ReceiveCoilActiveElements": "HC1-7;NC1,2",
  "ReceiveCoilName": "HeadNeck_64",
  "ReconMatrixPE": 104,
  "RepetitionTime": 1.49,
  "SAR": 0.0522063,
  "ScanOptions": "FS",
  "ScanningSequence": "EP",
  "SequenceName": "epfid2d1_104",
  "SequenceVariant": "SK\\SS",
  "SeriesDescription": "task_fLoc_run-2",
  "SeriesNumber": 13,
  "ShimSetting": [624, -7184, -8877, 282, 34, -255, -30, -7],
  "SliceThickness": 2,
  "SliceTiming": [0, 0.7825, 0.0975, 0.88, 0.195, 0.98, 0.2925, 1.0775, 0.39, 1.175, 0.49, 1.2725, 0.5875, 1.37, 0.685, 0, 0.7825, 0.0975, 0.88, 0.195, 0.98, 0.2925, 1.0775, 0.39, 1.175, 0.49, 1.2725, 0.5875, 1.37, 0.685, 0, 0.7825, 0.0975, 0.88, 0.195, 0.98, 0.2925, 1.0775, 0.39, 1.175, 0.49, 1.2725, 0.5875, 1.37, 0.685, 0, 0.7825, 0.0975, 0.88, 0.195, 0.98, 0.2925, 1.0775, 0.39, 1.175, 0.49, 1.2725, 0.5875, 1.37, 0.685],
  "SoftwareVersions": "syngo MR E11",
  "SpacingBetweenSlices": 2,
  "StationName": "MRC35049",
  "TaskName": "fLoc",
  "TotalReadoutTime": 0.0576811,
  "TxRefAmp": 294.119,
  "WipMemBlock": "83ca7097-2951-40b8-8aa0-f79ad7febe50||Sequence: R016 ve11c/master r/e634e98; Dec 19 2017 11:00:25 by eja",
  "dcmmeta_affine": [
    [-1.998741626739502, 0.027211712673306465, 0.06550968438386917, 103.88021087646484],
    [-0.011602443642914295, 1.6967134475708008, -1.0587865114212036, -47.97393035888672],
    [0.06998127698898315, 1.0585002899169922, 1.6954880952835083, -106.49308776855469],
    [0.0, 0.0, 0.0, 1.0]
],
  "dcmmeta_reorient_transform": [
    [0.0, -1.0, 0.0, 103.0],
    [1.0, 0.0, 0.0, 0.0],
    [0.0, 0.0, 1.0, 0.0],
    [0.0, 0.0, 0.0, 1.0]
],
  "dcmmeta_shape": [104, 104, 60, 155],
  "dcmmeta_slice_dim": 2,
  "dcmmeta_version": 0.6,
  "global": {
    "const": {
      "AcquisitionMatrix": [104, 0, 0, 104],
      "AngioFlag": "N",
      "BitsAllocated": 16,
      "BitsStored": 16,
      "BodyPartExamined": "BRAIN",
      "Columns": 832,
      "EchoNumbers": 1,
      "EchoTime": 37.0,
      "EchoTrainLength": 104,
      "FlipAngle": 52.0,
      "HighBit": 15,
      "ImageOrientationPatient": [0.9993708025287, 0.00580122198218, 0.03499063984349, 0.01360585675989, 0.84835673456345, -0.529250159738],
      "ImagePositionPatient": [-844.13002190479, -748.61454756203, 362.35337230392],
      "ImageType": [
        "ORIGINAL",
        "PRIMARY",
        "M",
        "MB",
        "ND",
        "MOSAIC"
],
      "ImagedNucleus": "1H",
      "ImagingFrequency": 123.258936,
      "InPlanePhaseEncodingDirection": "COL",
      "MRAcquisitionType": "2D",
      "MagneticFieldStrength": 3.0,
      "Manufacturer": "SIEMENS",
      "ManufacturerModelName": "Prisma_fit",
      "Modality": "MR",
      "NumberOfAverages": 1.0,
      "NumberOfPhaseEncodingSteps": 104,
      "PercentPhaseFieldOfView": 100.0,
      "PercentSampling": 100.0,
      "PerformedProcedureStepStartTime": "112940.579000",
      "PhotometricInterpretation": "MONOCHROME2",
      "PixelBandwidth": 2290.0,
      "PixelRepresentation": 0,
      "PixelSpacing": [2.0, 2.0],
      "ProtocolName": "task_fLoc_run-2",
      "RepetitionTime": 1490.0,
      "Rows": 832,
      "SAR": 0.05220632056529,
      "SamplesPerPixel": 1,
      "ScanOptions": "FS",
      "ScanningSequence": "EP",
      "SequenceName": "epfid2d1_104",
      "SequenceVariant": [
        "SK",
        "SS"
],
      "SeriesDescription": "task_fLoc_run-2",
      "SeriesNumber": 13,
      "SeriesTime": "114424.737000",
      "SliceLocation": -61.479226199737,
      "SliceThickness": 2.0,
      "SmallestImagePixelValue": 0,
      "SoftwareVersions": "syngo MR E11",
      "SpacingBetweenSlices": 1.9999999952753,
      "SpecificCharacterSet": "ISO_IR 100",
      "StudyID": "1",
      "StudyTime": "112940.499000",
      "TransmitCoilName": "Body",
      "VariableFlipAngleFlag": "N",
      "WindowCenterWidthExplanation": "Algo1",
      "dBdt": 0.0},
    "slices": {}
  },
  "time": {
    "samples": {
      "AcquisitionNumber": [1, 2, 3, 4, 5, 6, 7, 8, 9, 10, 11, 12, 13, 14, 15, 16, 17, 18, 19, 20, 21, 22, 23, 24, 25, 26, 27, 28, 29, 30, 31, 32, 33, 34, 35, 36, 37, 38, 39, 40, 41, 42, 43, 44, 45, 46, 47, 48, 49, 50, 51, 52, 53, 54, 55, 56, 57, 58, 59, 60, 61, 62, 63, 64, 65, 66, 67, 68, 69, 70, 71, 72, 73, 74, 75, 76, 77, 78, 79, 80, 81, 82, 83, 84, 85, 86, 87, 88, 89, 90, 91, 92, 93, 94, 95, 96, 97, 98, 99, 100, 101, 102, 103, 104, 105, 106, 107, 108, 109, 110, 111, 112, 113, 114, 115, 116, 117, 118, 119, 120, 121, 122, 123, 124, 125, 126, 127, 128, 129, 130, 131, 132, 133, 134, 135, 136, 137, 138, 139, 140, 141, 142, 143, 144, 145, 146, 147, 148, 149, 150, 151, 152, 153, 154, 155],
      "AcquisitionTime": ["114300.245000", "114301.735000", "114303.225000", "114304.715000", "114306.205000", "114307.695000", "114309.185000", "114310.675000", "114312.165000", "114313.655000", "114315.145000", "114316.635000", "114318.125000", "114319.615000", "114321.105000", "114322.595000", "114324.085000", "114325.575000", "114327.065000", "114328.555000", "114330.045000", "114331.535000", "114333.025000", "114334.515000", "114336.005000", "114337.495000", "114338.985000", "114340.475000", "114341.965000", "114343.455000", "114344.945000", "114346.435000", "114347.925000", "114349.415000", "114350.905000", "114352.395000", "114353.885000", "114355.375000", "114356.865000", "114358.355000", "114359.845000", "114401.335000", "114402.825000", "114404.315000", "114405.805000", "114407.295000", "114408.785000", "114410.275000", "114411.765000", "114413.255000", "114414.745000", "114416.235000", "114417.725000", "114419.215000", "114420.705000", "114422.195000", "114423.685000", "114425.175000", "114426.665000", "114428.155000", "114429.645000", "114431.135000", "114432.625000", "114434.115000", "114435.605000", "114437.095000", "114438.585000", "114440.075000", "114441.565000", "114443.055000", "114444.545000", "114446.035000", "114447.525000", "114449.015000", "114450.505000", "114451.995000", "114453.485000", "114454.975000", "114456.465000", "114457.955000", "114459.445000", "114500.935000", "114502.425000", "114503.915000", "114505.405000", "114506.895000", "114508.385000", "114509.875000", "114511.365000", "114512.855000", "114514.345000", "114515.835000", "114517.325000", "114518.815000", "114520.305000", "114521.795000", "114523.285000", "114524.775000", "114526.265000", "114527.755000", "114529.245000", "114530.735000", "114532.225000", "114533.715000", "114535.205000", "114536.695000", "114538.185000", "114539.675000", "114541.165000", "114542.655000", "114544.145000", "114545.635000", "114547.125000", "114548.615000", "114550.105000", "114551.595000", "114553.085000", "114554.575000", "114556.065000", "114557.555000", "114559.045000", "114600.535000", "114602.025000", "114603.515000", "114605.005000", "114606.495000", "114607.985000", "114609.475000", "114610.965000", "114612.455000", "114613.945000", "114615.435000", "114616.925000", "114618.415000", "114619.905000", "114621.395000", "114622.885000", "114624.375000", "114625.865000", "114627.355000", "114628.845000", "114630.335000", "114631.825000", "114633.315000", "114634.805000", "114636.295000", "114637.785000", "114639.275000", "114640.765000", "114642.255000", "114643.745000", "114645.235000", "114646.725000", "114648.215000", "114649.705000"],
      "ContentTime": ["114424.740000", "114424.744000", "114424.747000", "114424.750000", "114424.754000", "114424.757000", "114424.761000", "114424.764000", "114424.767000", "114424.770000", "114424.774000", "114424.777000", "114424.780000", "114424.784000", "114424.787000", "114424.790000", "114424.794000", "114424.797000", "114424.800000", "114424.804000", "114424.807000", "114424.810000", "114424.814000", "114424.817000", "114424.820000", "114424.824000", "114424.833000", "114424.837000", "114424.840000", "114444.704000", "114444.708000", "114444.711000", "114444.714000", "114444.718000", "114444.721000", "114444.724000", "114444.728000", "114444.731000", "114444.734000", "114444.738000", "114444.759000", "114444.762000", "114444.765000", "114444.769000", "114444.772000", "114444.775000", "114444.779000", "114444.782000", "114444.785000", "114504.704000", "114504.708000", "114504.711000", "114504.714000", "114504.718000", "114504.721000", "114504.724000", "114504.727000", "114504.731000", "114504.734000", "114504.737000", "114504.741000", "114504.744000", "114504.747000", "114504.751000", "114504.754000", "114504.757000", "114504.761000", "114504.764000", "114504.767000", "114524.704000", "114524.708000", "114524.711000", "114524.719000", "114524.726000", "114524.730000", "114524.733000", "114524.736000", "114524.740000", "114524.743000", "114524.746000", "114524.750000", "114524.753000", "114524.756000", "114524.760000", "114524.763000", "114524.767000", "114524.851000", "114524.855000", "114524.858000", "114544.703000", "114544.707000", "114544.710000", "114544.713000", "114544.720000", "114544.724000", "114544.727000", "114544.730000", "114544.734000", "114544.737000", "114544.740000", "114544.744000", "114544.747000", "114544.750000", "114544.754000", "114544.757000", "114544.760000", "114544.764000", "114544.767000", "114544.771000", "114624.703000", "114624.707000", "114624.710000", "114624.714000", "114624.717000", "114624.720000", "114624.724000", "114624.727000", "114624.736000", "114624.739000", "114624.742000", "114624.746000", "114624.749000", "114624.753000", "114624.756000", "114624.759000", "114624.762000", "114624.766000", "114624.769000", "114624.772000", "114624.776000", "114624.779000", "114624.782000", "114624.786000", "114624.789000", "114624.792000", "114624.796000", "114652.321000", "114652.324000", "114652.328000", "114652.341000", "114652.344000", "114652.347000", "114652.351000", "114652.354000", "114652.357000", "114652.360000", "114652.364000", "114652.367000", "114652.370000", "114652.374000", "114652.377000", "114652.380000", "114652.384000", "114652.387000", "114652.391000"],
      "InstanceCreationTime": ["114424.740000", "114424.744000", "114424.747000", "114424.750000", "114424.754000", "114424.757000", "114424.761000", "114424.764000", "114424.767000", "114424.770000", "114424.774000", "114424.777000", "114424.780000", "114424.784000", "114424.787000", "114424.790000", "114424.794000", "114424.797000", "114424.800000", "114424.804000", "114424.807000", "114424.810000", "114424.814000", "114424.817000", "114424.820000", "114424.824000", "114424.833000", "114424.837000", "114424.840000", "114444.704000", "114444.708000", "114444.711000", "114444.714000", "114444.718000", "114444.721000", "114444.724000", "114444.728000", "114444.731000", "114444.734000", "114444.738000", "114444.759000", "114444.762000", "114444.765000", "114444.769000", "114444.772000", "114444.775000", "114444.779000", "114444.782000", "114444.785000", "114504.704000", "114504.708000", "114504.711000", "114504.714000", "114504.718000", "114504.721000", "114504.724000", "114504.727000", "114504.731000", "114504.734000", "114504.737000", "114504.741000", "114504.744000", "114504.747000", "114504.751000", "114504.754000", "114504.757000", "114504.761000", "114504.764000", "114504.767000", "114524.704000", "114524.708000", "114524.711000", "114524.719000", "114524.726000", "114524.730000", "114524.733000", "114524.736000", "114524.740000", "114524.743000", "114524.746000", "114524.750000", "114524.753000", "114524.756000", "114524.760000", "114524.763000", "114524.767000", "114524.851000", "114524.855000", "114524.858000", "114544.703000", "114544.707000", "114544.710000", "114544.713000", "114544.720000", "114544.724000", "114544.727000", "114544.730000", "114544.734000", "114544.737000", "114544.740000", "114544.744000", "114544.747000", "114544.750000", "114544.754000", "114544.757000", "114544.760000", "114544.764000", "114544.767000", "114544.771000", "114624.703000", "114624.707000", "114624.710000", "114624.714000", "114624.717000", "114624.720000", "114624.724000", "114624.727000", "114624.736000", "114624.739000", "114624.742000", "114624.746000", "114624.749000", "114624.753000", "114624.756000", "114624.759000", "114624.762000", "114624.766000", "114624.769000", "114624.772000", "114624.776000", "114624.779000", "114624.782000", "114624.786000", "114624.789000", "114624.792000", "114624.796000", "114652.321000", "114652.324000", "114652.328000", "114652.341000", "114652.344000", "114652.347000", "114652.351000", "114652.354000", "114652.357000", "114652.360000", "114652.364000", "114652.367000", "114652.370000", "114652.374000", "114652.377000", "114652.380000", "114652.384000", "114652.387000", "114652.391000"],
      "InstanceNumber": [1, 2, 3, 4, 5, 6, 7, 8, 9, 10, 11, 12, 13, 14, 15, 16, 17, 18, 19, 20, 21, 22, 23, 24, 25, 26, 27, 28, 29, 30, 31, 32, 33, 34, 35, 36, 37, 38, 39, 40, 41, 42, 43, 44, 45, 46, 47, 48, 49, 50, 51, 52, 53, 54, 55, 56, 57, 58, 59, 60, 61, 62, 63, 64, 65, 66, 67, 68, 69, 70, 71, 72, 73, 74, 75, 76, 77, 78, 79, 80, 81, 82, 83, 84, 85, 86, 87, 88, 89, 90, 91, 92, 93, 94, 95, 96, 97, 98, 99, 100, 101, 102, 103, 104, 105, 106, 107, 108, 109, 110, 111, 112, 113, 114, 115, 116, 117, 118, 119, 120, 121, 122, 123, 124, 125, 126, 127, 128, 129, 130, 131, 132, 133, 134, 135, 136, 137, 138, 139, 140, 141, 142, 143, 144, 145, 146, 147, 148, 149, 150, 151, 152, 153, 154, 155],
      "LargestImagePixelValue": [39422, 41195, 43717, 39635, 39737, 39551, 39721, 39600, 39413, 39144, 39327, 39055, 39524, 38996, 39685, 39777, 39710, 38608, 38515, 37737, 37774, 38473, 38810, 39333, 39840, 39903, 39682, 39832, 40064, 41811, 39438, 38765, 39587, 39398, 38742, 38713, 39031, 38280, 38770, 38514, 38688, 38270, 39093, 39347, 39328, 39348, 38982, 38743, 39072, 38643, 39224, 39060, 39788, 38781, 38115, 38095, 38182, 37366, 37909, 38237, 38852, 39306, 39150, 39889, 39531, 39822, 39520, 38931, 37251, 37172, 36524, 36537, 37405, 37848, 39061, 39569, 39290, 40757, 39073, 38317, 37500, 36557, 36741, 36879, 38007, 39128, 39187, 39366, 38940, 41293, 38827, 37564, 38321, 37858, 37795, 38068, 37855, 38900, 38239, 38722, 39178, 38464, 38979, 38423, 38767, 38233, 38802, 38224, 38226, 39074, 38781, 37063, 36669, 38124, 39432, 40055, 39510, 38581, 38545, 38495, 37975, 37628, 37586, 37036, 38813, 38540, 38650, 38681, 38181, 38064, 37751, 38094, 37988, 37578, 38504, 38900, 39338, 37604, 37761, 37809, 38863, 38825, 37784, 37378, 37693, 37318, 38081, 38002, 38685, 38615, 38448, 37266, 39066, 39183, 38235],
      "WindowCenter": [10348.0, 10293.0, 10284.0, 10221.0, 10226.0, 10239.0, 10236.0, 10212.0, 10183.0, 10180.0, 10207.0, 10240.0, 10270.0, 10253.0, 10255.0, 10247.0, 10246.0, 10238.0, 10223.0, 10228.0, 10249.0, 10275.0, 10278.0, 10281.0, 10266.0, 10258.0, 10265.0, 10279.0, 10266.0, 10307.0, 10298.0, 10322.0, 10341.0, 10295.0, 10246.0, 10206.0, 10206.0, 10248.0, 10299.0, 10309.0, 10302.0, 10264.0, 10256.0, 10236.0, 10222.0, 10212.0, 10211.0, 10215.0, 10232.0, 10255.0, 10291.0, 10281.0, 10255.0, 10220.0, 10242.0, 10290.0, 10323.0, 10311.0, 10293.0, 10278.0, 10276.0, 10270.0, 10258.0, 10272.0, 10296.0, 10296.0, 10264.0, 10199.0, 10169.0, 10213.0, 10265.0, 10288.0, 10283.0, 10268.0, 10286.0, 10272.0, 10240.0, 10236.0, 10215.0, 10231.0, 10232.0, 10232.0, 10250.0, 10245.0, 10252.0, 10255.0, 10255.0, 10276.0, 10272.0, 10310.0, 10272.0, 10254.0, 10274.0, 10272.0, 10290.0, 10290.0, 10290.0, 10291.0, 10278.0, 10293.0, 10297.0, 10285.0, 10281.0, 10264.0, 10270.0, 10258.0, 10270.0, 10257.0, 10258.0, 10272.0, 10255.0, 10235.0, 10263.0, 10315.0, 10316.0, 10282.0, 10224.0, 10168.0, 10152.0, 10161.0, 10192.0, 10210.0, 10228.0, 10234.0, 10258.0, 10299.0, 10293.0, 10281.0, 10258.0, 10238.0, 10218.0, 10235.0, 10247.0, 10246.0, 10266.0, 10255.0, 10230.0, 10231.0, 10283.0, 10305.0, 10303.0, 10272.0, 10229.0, 10227.0, 10240.0, 10234.0, 10220.0, 10201.0, 10198.0, 10196.0, 10196.0, 10186.0, 10222.0, 10209.0, 10174.0],
      "WindowWidth": [22135.0, 21964.0, 21911.0, 21780.0, 21785.0, 21813.0, 21806.0, 21754.0, 21690.0, 21683.0, 21740.0, 21817.0, 21882.0, 21852.0, 21845.0, 21831.0, 21828.0, 21815.0, 21778.0, 21791.0, 21837.0, 21892.0, 21899.0, 21902.0, 21865.0, 21852.0, 21864.0, 21902.0, 21868.0, 21953.0, 21943.0, 22003.0, 22042.0, 21937.0, 21832.0, 21746.0, 21736.0, 21832.0, 21944.0, 21975.0, 21959.0, 21872.0, 21845.0, 21803.0, 21771.0, 21752.0, 21748.0, 21759.0, 21795.0, 21848.0, 21922.0, 21907.0, 21847.0, 21774.0, 21822.0, 21928.0, 21999.0, 21973.0, 21930.0, 21893.0, 21889.0, 21874.0, 21850.0, 21880.0, 21937.0, 21940.0, 21869.0, 21728.0, 21667.0, 21760.0, 21882.0, 21937.0, 21918.0, 21877.0, 21907.0, 21877.0, 21811.0, 21798.0, 21760.0, 21794.0, 21805.0, 21809.0, 21844.0, 21836.0, 21843.0, 21846.0, 21849.0, 21893.0, 21889.0, 21962.0, 21889.0, 21857.0, 21895.0, 21897.0, 21932.0, 21933.0, 21933.0, 21929.0, 21906.0, 21935.0, 21941.0, 21919.0, 21907.0, 21872.0, 21882.0, 21862.0, 21881.0, 21855.0, 21857.0, 21883.0, 21851.0, 21813.0, 21872.0, 21981.0, 21980.0, 21906.0, 21780.0, 21661.0, 21624.0, 21645.0, 21713.0, 21758.0, 21804.0, 21816.0, 21855.0, 21943.0, 21931.0, 21900.0, 21855.0, 21813.0, 21768.0, 21804.0, 21830.0, 21837.0, 21876.0, 21850.0, 21792.0, 21800.0, 21919.0, 21966.0, 21956.0, 21884.0, 21793.0, 21787.0, 21816.0, 21806.0, 21770.0, 21727.0, 21719.0, 21715.0, 21720.0, 21706.0, 21773.0, 21741.0, 21669.0]
    },
    "slices": {}
  }
}