{
  "AcquisitionMatrixPE": 104,
  "AcquisitionNumber": 1,
  "AcquisitionTime": "14:04:29.337500",
  "BandwidthPerPixelPhaseEncode": 17.17,
  "BaseResolution": 104,
  "BodyPartExamined": "BRAIN",
  "CoilCombinationMethod": "Sum of Squares",
  "ConsistencyInfo": "N4_VE11C_LATEST_20160120",
  "ConversionSoftware": "dcm2niix",
  "ConversionSoftwareVersion": "v1.0.20211006",
  "DerivedVendorReportedEchoSpacing": 0.000560011,
  "DeviceSerialNumber": "167006",
  "DwellTime": 2.1e-06,
  "EchoTime": 0.037,
  "EchoTrainLength": 104,
  "EffectiveEchoSpacing": 0.000560011,
  "FlipAngle": 52,
  "HeudiconvVersion": "0.10.0",
  "ImageComments": "Unaliased MB4/PE3/LB",
  "ImageOrientationPatientDICOM": [0.998711, 0.0128923, 0.0490899, 0.000174335, 0.966324, -0.257328],
  "ImageOrientationText": "Tra>Cor(-14.9)>Sag(2.9)",
  "ImageType": [
    "ORIGINAL",
    "PRIMARY",
    "M",
    "MB",
    "ND",
    "MOSAIC"
],
  "ImagingFrequency": 123.259,
  "InPlanePhaseEncodingDirectionDICOM": "COL",
  "InstitutionAddress": "Chemin Queen-Mary 4565,Montreal,District,CA,H3W 1W5",
  "InstitutionName": "IUGM",
  "InstitutionalDepartmentName": "Department",
  "MRAcquisitionType": "2D",
  "MagneticFieldStrength": 3,
  "Manufacturer": "Siemens",
  "ManufacturersModelName": "Prisma_fit",
  "MatrixCoilMode": "SENSE",
  "Modality": "MR",
  "MultibandAccelerationFactor": 4,
  "PartialFourier": 1,
  "PatientPosition": "HFS",
  "PercentPhaseFOV": 100,
  "PercentSampling": 100,
  "PhaseEncodingDirection": "j",
  "PhaseEncodingSteps": 104,
  "PhaseResolution": 1,
  "PixelBandwidth": 2290,
  "ProcedureStepDescription": "localizers^fLoc",
  "ProtocolName": "task_fLoc_run-1",
  "PulseSequenceDetails": "%CustomerSeq%\\cmrr_mbep2d_bold",
  "ReceiveCoilActiveElements": "HC1-7;NC1,2",
  "ReceiveCoilName": "HeadNeck_64",
  "ReconMatrixPE": 104,
  "RepetitionTime": 1.49,
  "SAR": 0.0627275,
  "ScanOptions": "FS",
  "ScanningSequence": "EP",
  "SequenceName": "epfid2d1_104",
  "SequenceVariant": "SK\\SS",
  "SeriesDescription": "task_fLoc_run-1",
  "SeriesNumber": 10,
  "ShimSetting": [642, -7209, -8792, 730, 62, 13, 27, -22],
  "SliceThickness": 2,
  "SliceTiming": [0, 0.785, 0.1, 0.8825, 0.1975, 0.98, 0.295, 1.08, 0.3925, 1.1775, 0.49, 1.275, 0.59, 1.3725, 0.6875, 0, 0.785, 0.1, 0.8825, 0.1975, 0.98, 0.295, 1.08, 0.3925, 1.1775, 0.49, 1.275, 0.59, 1.3725, 0.6875, 0, 0.785, 0.1, 0.8825, 0.1975, 0.98, 0.295, 1.08, 0.3925, 1.1775, 0.49, 1.275, 0.59, 1.3725, 0.6875, 0, 0.785, 0.1, 0.8825, 0.1975, 0.98, 0.295, 1.08, 0.3925, 1.1775, 0.49, 1.275, 0.59, 1.3725, 0.6875],
  "SoftwareVersions": "syngo MR E11",
  "SpacingBetweenSlices": 2,
  "StationName": "MRC35049",
  "TaskName": "fLoc",
  "TotalReadoutTime": 0.0576811,
  "TxRefAmp": 256.061,
  "WipMemBlock": "a730a9df-36ce-45fe-b23c-5e141ac8b043||Sequence: R016 ve11c/master r/e634e98; Dec 19 2017 11:00:25 by eja",
  "dcmmeta_affine": [
    [-1.9974223375320435, 0.00034867034992203116, 0.10150865465402603, 106.410888671875],
    [-0.025784531608223915, 1.9326481819152832, -0.5140098929405212, -73.3249740600586],
    [0.09817986935377121, 0.514656126499176, 1.9301527738571167, -67.80039978027344],
    [0.0, 0.0, 0.0, 1.0]
],
  "dcmmeta_reorient_transform": [
    [0.0, -1.0, 0.0, 103.0],
    [1.0, 0.0, 0.0, 0.0],
    [0.0, 0.0, 1.0, 0.0],
    [0.0, 0.0, 0.0, 1.0]
],
  "dcmmeta_shape": [104, 104, 60, 155],
  "dcmmeta_slice_dim": 2,
  "dcmmeta_version": 0.6,
  "global": {
    "const": {
      "AcquisitionMatrix": [104, 0, 0, 104],
      "AngioFlag": "N",
      "BitsAllocated": 16,
      "BitsStored": 16,
      "BodyPartExamined": "BRAIN",
      "Columns": 832,
      "EchoNumbers": 1,
      "EchoTime": 37.0,
      "EchoTrainLength": 104,
      "FlipAngle": 52.0,
      "HighBit": 15,
      "ImageOrientationPatient": [0.99871115335762, 0.01289226587666, 0.04908993419891, 0.00017433518136, 0.9663240859967, -0.2573280599349],
      "ImagePositionPatient": [-833.63543365018, -838.60728912143, 136.80653455281],
      "ImageType": [
        "ORIGINAL",
        "PRIMARY",
        "M",
        "MB",
        "ND",
        "MOSAIC"
],
      "ImagedNucleus": "1H",
      "ImagingFrequency": 123.259113,
      "InPlanePhaseEncodingDirection": "COL",
      "MRAcquisitionType": "2D",
      "MagneticFieldStrength": 3.0,
      "Manufacturer": "SIEMENS",
      "ManufacturerModelName": "Prisma_fit",
      "Modality": "MR",
      "NumberOfAverages": 1.0,
      "NumberOfPhaseEncodingSteps": 104,
      "PercentPhaseFieldOfView": 100.0,
      "PercentSampling": 100.0,
      "PerformedProcedureStepStartTime": "140041.366000",
      "PhotometricInterpretation": "MONOCHROME2",
      "PixelBandwidth": 2290.0,
      "PixelRepresentation": 0,
      "PixelSpacing": [2.0, 2.0],
      "ProtocolName": "task_fLoc_run-1",
      "RepetitionTime": 1490.0,
      "Rows": 832,
      "SAR": 0.06272753719979,
      "SamplesPerPixel": 1,
      "ScanOptions": "FS",
      "ScanningSequence": "EP",
      "SequenceName": "epfid2d1_104",
      "SequenceVariant": [
        "SK",
        "SS"
],
      "SeriesDescription": "task_fLoc_run-1",
      "SeriesNumber": 10,
      "SeriesTime": "140600.726000",
      "SliceLocation": -41.186871136721,
      "SliceThickness": 2.0,
      "SmallestImagePixelValue": 0,
      "SoftwareVersions": "syngo MR E11",
      "SpacingBetweenSlices": 1.9999999728187,
      "SpecificCharacterSet": "ISO_IR 100",
      "StudyID": "1",
      "StudyTime": "140041.286000",
      "TransmitCoilName": "Body",
      "VariableFlipAngleFlag": "N",
      "WindowCenterWidthExplanation": "Algo1",
      "dBdt": 0.0},
    "slices": {}
  },
  "time": {
    "samples": {
      "AcquisitionNumber": [1, 2, 3, 4, 5, 6, 7, 8, 9, 10, 11, 12, 13, 14, 15, 16, 17, 18, 19, 20, 21, 22, 23, 24, 25, 26, 27, 28, 29, 30, 31, 32, 33, 34, 35, 36, 37, 38, 39, 40, 41, 42, 43, 44, 45, 46, 47, 48, 49, 50, 51, 52, 53, 54, 55, 56, 57, 58, 59, 60, 61, 62, 63, 64, 65, 66, 67, 68, 69, 70, 71, 72, 73, 74, 75, 76, 77, 78, 79, 80, 81, 82, 83, 84, 85, 86, 87, 88, 89, 90, 91, 92, 93, 94, 95, 96, 97, 98, 99, 100, 101, 102, 103, 104, 105, 106, 107, 108, 109, 110, 111, 112, 113, 114, 115, 116, 117, 118, 119, 120, 121, 122, 123, 124, 125, 126, 127, 128, 129, 130, 131, 132, 133, 134, 135, 136, 137, 138, 139, 140, 141, 142, 143, 144, 145, 146, 147, 148, 149, 150, 151, 152, 153, 154, 155],
      "AcquisitionTime": ["140429.337500", "140430.827500", "140432.317500", "140433.807500", "140435.297500", "140436.787500", "140438.277500", "140439.767500", "140441.257500", "140442.747500", "140444.237500", "140445.727500", "140447.217500", "140448.707500", "140450.197500", "140451.687500", "140453.177500", "140454.667500", "140456.157500", "140457.647500", "140459.137500", "140500.627500", "140502.117500", "140503.607500", "140505.097500", "140506.587500", "140508.077500", "140509.567500", "140511.057500", "140512.547500", "140514.037500", "140515.527500", "140517.017500", "140518.507500", "140519.997500", "140521.487500", "140522.977500", "140524.467500", "140525.957500", "140527.447500", "140528.937500", "140530.427500", "140531.917500", "140533.407500", "140534.897500", "140536.387500", "140537.877500", "140539.367500", "140540.857500", "140542.347500", "140543.837500", "140545.327500", "140546.817500", "140548.307500", "140549.797500", "140551.287500", "140552.777500", "140554.267500", "140555.757500", "140557.247500", "140558.737500", "140600.227500", "140601.717500", "140603.207500", "140604.697500", "140606.187500", "140607.677500", "140609.167500", "140610.657500", "140612.147500", "140613.637500", "140615.127500", "140616.617500", "140618.107500", "140619.597500", "140621.087500", "140622.577500", "140624.067500", "140625.557500", "140627.047500", "140628.537500", "140630.027500", "140631.517500", "140633.007500", "140634.497500", "140635.987500", "140637.477500", "140638.967500", "140640.457500", "140641.947500", "140643.437500", "140644.927500", "140646.417500", "140647.907500", "140649.397500", "140650.887500", "140652.377500", "140653.867500", "140655.357500", "140656.847500", "140658.337500", "140659.827500", "140701.317500", "140702.807500", "140704.297500", "140705.787500", "140707.277500", "140708.767500", "140710.257500", "140711.747500", "140713.237500", "140714.727500", "140716.217500", "140717.707500", "140719.197500", "140720.687500", "140722.177500", "140723.667500", "140725.157500", "140726.647500", "140728.137500", "140729.627500", "140731.117500", "140732.607500", "140734.097500", "140735.587500", "140737.077500", "140738.567500", "140740.057500", "140741.547500", "140743.037500", "140744.527500", "140746.017500", "140747.507500", "140748.997500", "140750.487500", "140751.977500", "140753.467500", "140754.957500", "140756.447500", "140757.937500", "140759.427500", "140800.917500", "140802.407500", "140803.897500", "140805.387500", "140806.877500", "140808.367500", "140809.857500", "140811.347500", "140812.837500", "140814.327500", "140815.817500", "140817.307500", "140818.797500"],
      "ContentTime": ["140600.730000", "140600.733000", "140600.737000", "140600.740000", "140600.743000", "140600.747000", "140600.750000", "140600.753000", "140600.756000", "140600.760000", "140600.767000", "140600.770000", "140600.773000", "140600.777000", "140600.780000", "140600.791000", "140600.794000", "140600.797000", "140600.801000", "140600.804000", "140600.807000", "140600.811000", "140600.814000", "140600.817000", "140600.821000", "140600.824000", "140600.827000", "140600.830000", "140600.834000", "140600.837000", "140600.840000", "140600.843000", "140600.847000", "140600.850000", "140600.853000", "140600.856000", "140600.860000", "140600.863000", "140600.866000", "140620.694000", "140620.698000", "140620.701000", "140620.704000", "140620.707000", "140620.711000", "140620.723000", "140620.727000", "140620.730000", "140620.733000", "140620.736000", "140620.740000", "140620.743000", "140620.746000", "140620.749000", "140620.753000", "140620.756000", "140620.770000", "140620.773000", "140620.777000", "140640.695000", "140640.699000", "140640.702000", "140640.705000", "140640.708000", "140640.712000", "140640.715000", "140640.718000", "140640.722000", "140640.725000", "140640.728000", "140640.731000", "140640.735000", "140640.738000", "140640.741000", "140640.745000", "140640.748000", "140640.751000", "140640.754000", "140640.758000", "140700.695000", "140700.698000", "140700.702000", "140700.705000", "140700.708000", "140700.712000", "140700.715000", "140700.718000", "140700.721000", "140700.725000", "140700.728000", "140700.731000", "140700.735000", "140700.738000", "140700.741000", "140700.744000", "140700.748000", "140700.751000", "140700.754000", "140700.758000", "140700.761000", "140720.695000", "140720.699000", "140720.702000", "140720.705000", "140720.708000", "140720.712000", "140720.715000", "140720.718000", "140720.722000", "140720.725000", "140720.728000", "140720.731000", "140720.735000", "140720.738000", "140800.695000", "140800.699000", "140800.702000", "140800.705000", "140800.708000", "140800.712000", "140800.715000", "140800.718000", "140800.722000", "140800.725000", "140800.728000", "140800.732000", "140800.735000", "140800.738000", "140800.741000", "140800.745000", "140800.748000", "140800.751000", "140800.755000", "140800.758000", "140800.761000", "140800.764000", "140800.768000", "140800.771000", "140800.774000", "140800.777000", "140800.781000", "140820.582000", "140820.586000", "140820.594000", "140820.597000", "140820.600000", "140820.604000", "140820.608000", "140820.611000", "140820.643000", "140820.646000", "140820.656000", "140820.660000", "140820.663000", "140820.666000"],
      "InstanceCreationTime": ["140600.730000", "140600.733000", "140600.737000", "140600.740000", "140600.743000", "140600.747000", "140600.750000", "140600.753000", "140600.756000", "140600.760000", "140600.767000", "140600.770000", "140600.773000", "140600.777000", "140600.780000", "140600.791000", "140600.794000", "140600.797000", "140600.801000", "140600.804000", "140600.807000", "140600.811000", "140600.814000", "140600.817000", "140600.821000", "140600.824000", "140600.827000", "140600.830000", "140600.834000", "140600.837000", "140600.840000", "140600.843000", "140600.847000", "140600.850000", "140600.853000", "140600.856000", "140600.860000", "140600.863000", "140600.866000", "140620.694000", "140620.698000", "140620.701000", "140620.704000", "140620.707000", "140620.711000", "140620.723000", "140620.727000", "140620.730000", "140620.733000", "140620.736000", "140620.740000", "140620.743000", "140620.746000", "140620.749000", "140620.753000", "140620.756000", "140620.770000", "140620.773000", "140620.777000", "140640.695000", "140640.699000", "140640.702000", "140640.705000", "140640.708000", "140640.712000", "140640.715000", "140640.718000", "140640.722000", "140640.725000", "140640.728000", "140640.731000", "140640.735000", "140640.738000", "140640.741000", "140640.745000", "140640.748000", "140640.751000", "140640.754000", "140640.758000", "140700.695000", "140700.698000", "140700.702000", "140700.705000", "140700.708000", "140700.712000", "140700.715000", "140700.718000", "140700.721000", "140700.725000", "140700.728000", "140700.731000", "140700.735000", "140700.738000", "140700.741000", "140700.744000", "140700.748000", "140700.751000", "140700.754000", "140700.758000", "140700.761000", "140720.695000", "140720.699000", "140720.702000", "140720.705000", "140720.708000", "140720.712000", "140720.715000", "140720.718000", "140720.722000", "140720.725000", "140720.728000", "140720.731000", "140720.735000", "140720.738000", "140800.695000", "140800.699000", "140800.702000", "140800.705000", "140800.708000", "140800.712000", "140800.715000", "140800.718000", "140800.722000", "140800.725000", "140800.728000", "140800.732000", "140800.735000", "140800.738000", "140800.741000", "140800.745000", "140800.748000", "140800.751000", "140800.755000", "140800.758000", "140800.761000", "140800.764000", "140800.768000", "140800.771000", "140800.774000", "140800.777000", "140800.781000", "140820.582000", "140820.586000", "140820.594000", "140820.597000", "140820.600000", "140820.604000", "140820.608000", "140820.611000", "140820.643000", "140820.646000", "140820.656000", "140820.660000", "140820.663000", "140820.666000"],
      "InstanceNumber": [1, 2, 3, 4, 5, 6, 7, 8, 9, 10, 11, 12, 13, 14, 15, 16, 17, 18, 19, 20, 21, 22, 23, 24, 25, 26, 27, 28, 29, 30, 31, 32, 33, 34, 35, 36, 37, 38, 39, 40, 41, 42, 43, 44, 45, 46, 47, 48, 49, 50, 51, 52, 53, 54, 55, 56, 57, 58, 59, 60, 61, 62, 63, 64, 65, 66, 67, 68, 69, 70, 71, 72, 73, 74, 75, 76, 77, 78, 79, 80, 81, 82, 83, 84, 85, 86, 87, 88, 89, 90, 91, 92, 93, 94, 95, 96, 97, 98, 99, 100, 101, 102, 103, 104, 105, 106, 107, 108, 109, 110, 111, 112, 113, 114, 115, 116, 117, 118, 119, 120, 121, 122, 123, 124, 125, 126, 127, 128, 129, 130, 131, 132, 133, 134, 135, 136, 137, 138, 139, 140, 141, 142, 143, 144, 145, 146, 147, 148, 149, 150, 151, 152, 153, 154, 155],
      "LargestImagePixelValue": [40360, 38770, 38484, 37946, 37607, 37426, 37848, 37515, 37420, 37202, 37448, 37766, 37279, 37583, 37147, 38105, 37890, 37525, 37128, 37202, 37439, 37613, 37448, 37535, 37284, 37425, 37171, 36982, 37599, 37447, 37163, 37365, 37323, 37672, 37544, 37217, 37269, 37875, 37300, 37333, 36829, 37603, 37432, 37515, 37097, 36680, 37060, 37883, 37114, 36948, 37408, 37745, 37410, 37128, 37236, 36647, 37815, 37772, 37135, 37272, 36928, 37769, 37784, 37469, 37149, 36930, 37294, 37332, 37328, 37295, 36907, 36806, 36800, 37731, 37567, 37262, 37195, 37180, 37144, 37341, 37188, 36755, 37201, 37452, 37382, 37015, 36669, 37022, 37650, 37066, 37613, 36992, 37345, 37735, 37121, 37156, 36752, 37291, 37856, 37823, 37124, 37142, 36776, 37507, 37573, 37493, 36657, 37235, 37264, 36771, 36861, 36605, 37700, 37472, 37334, 37324, 37344, 37243, 37298, 37412, 37379, 37034, 37601, 37554, 37084, 36741, 36969, 37697, 37650, 37136, 36985, 36953, 37730, 37734, 37414, 37679, 37353, 37090, 37936, 37703, 37421, 37627, 36956, 36485, 37865, 37493, 37299, 36797, 37025, 37196, 37601, 37288, 36705, 36904, 37022],
      "WindowCenter": [10140.0, 10106.0, 10070.0, 10045.0, 10042.0, 10058.0, 10084.0, 10079.0, 10063.0, 10053.0, 10076.0, 10095.0, 10092.0, 10080.0, 10057.0, 10067.0, 10084.0, 10094.0, 10091.0, 10088.0, 10087.0, 10094.0, 10089.0, 10079.0, 10062.0, 10066.0, 10069.0, 10085.0, 10089.0, 10087.0, 10074.0, 10080.0, 10087.0, 10102.0, 10098.0, 10082.0, 10063.0, 10069.0, 10080.0, 10098.0, 10090.0, 10087.0, 10087.0, 10096.0, 10090.0, 10090.0, 10091.0, 10082.0, 10063.0, 10054.0, 10069.0, 10094.0, 10100.0, 10094.0, 10084.0, 10076.0, 10080.0, 10085.0, 10075.0, 10080.0, 10083.0, 10096.0, 10098.0, 10089.0, 10075.0, 10075.0, 10096.0, 10100.0, 10099.0, 10089.0, 10076.0, 10089.0, 10100.0, 10098.0, 10081.0, 10064.0, 10066.0, 10081.0, 10083.0, 10067.0, 10050.0, 10039.0, 10052.0, 10068.0, 10078.0, 10072.0, 10068.0, 10074.0, 10078.0, 10065.0, 10071.0, 10065.0, 10064.0, 10078.0, 10089.0, 10101.0, 10086.0, 10082.0, 10072.0, 10077.0, 10077.0, 10090.0, 10086.0, 10090.0, 10096.0, 10096.0, 10085.0, 10083.0, 10082.0, 10085.0, 10082.0, 10066.0, 10068.0, 10079.0, 10089.0, 10080.0, 10055.0, 10038.0, 10050.0, 10068.0, 10088.0, 10091.0, 10089.0, 10072.0, 10067.0, 10074.0, 10089.0, 10097.0, 10090.0, 10074.0, 10064.0, 10063.0, 10078.0, 10087.0, 10096.0, 10096.0, 10083.0, 10083.0, 10101.0, 10098.0, 10091.0, 10087.0, 10076.0, 10085.0, 10090.0, 10075.0, 10063.0, 10065.0, 10079.0, 10084.0, 10088.0, 10073.0, 10066.0, 10064.0, 10057.0],
      "WindowWidth": [21579.0, 21481.0, 21387.0, 21325.0, 21315.0, 21348.0, 21405.0, 21396.0, 21360.0, 21334.0, 21388.0, 21434.0, 21430.0, 21399.0, 21351.0, 21367.0, 21408.0, 21430.0, 21427.0, 21417.0, 21413.0, 21426.0, 21416.0, 21392.0, 21352.0, 21361.0, 21372.0, 21408.0, 21417.0, 21410.0, 21384.0, 21397.0, 21412.0, 21447.0, 21439.0, 21403.0, 21356.0, 21368.0, 21398.0, 21440.0, 21421.0, 21412.0, 21412.0, 21432.0, 21422.0, 21420.0, 21420.0, 21400.0, 21357.0, 21335.0, 21370.0, 21427.0, 21447.0, 21434.0, 21411.0, 21390.0, 21397.0, 21405.0, 21390.0, 21399.0, 21407.0, 21431.0, 21435.0, 21412.0, 21387.0, 21388.0, 21433.0, 21447.0, 21440.0, 21417.0, 21388.0, 21415.0, 21441.0, 21433.0, 21397.0, 21360.0, 21366.0, 21401.0, 21404.0, 21367.0, 21328.0, 21304.0, 21330.0, 21366.0, 21388.0, 21378.0, 21370.0, 21382.0, 21389.0, 21362.0, 21373.0, 21364.0, 21361.0, 21391.0, 21419.0, 21447.0, 21416.0, 21399.0, 21376.0, 21387.0, 21394.0, 21421.0, 21414.0, 21420.0, 21432.0, 21433.0, 21410.0, 21404.0, 21402.0, 21410.0, 21400.0, 21363.0, 21363.0, 21389.0, 21414.0, 21391.0, 21335.0, 21299.0, 21325.0, 21367.0, 21415.0, 21423.0, 21416.0, 21377.0, 21369.0, 21383.0, 21417.0, 21432.0, 21417.0, 21380.0, 21356.0, 21356.0, 21387.0, 21410.0, 21431.0, 21428.0, 21402.0, 21405.0, 21440.0, 21437.0, 21420.0, 21407.0, 21387.0, 21410.0, 21416.0, 21384.0, 21355.0, 21361.0, 21392.0, 21404.0, 21413.0, 21377.0, 21362.0, 21355.0, 21339.0]
    },
    "slices": {}
  }
}