{
  "AcquisitionMatrixPE": 104,
  "AcquisitionNumber": 1,
  "AcquisitionTime": "14:09:33.527500",
  "BandwidthPerPixelPhaseEncode": 17.17,
  "BaseResolution": 104,
  "BodyPartExamined": "BRAIN",
  "CoilCombinationMethod": "Sum of Squares",
  "ConsistencyInfo": "N4_VE11C_LATEST_20160120",
  "ConversionSoftware": "dcm2niix",
  "ConversionSoftwareVersion": "v1.0.20211006",
  "DerivedVendorReportedEchoSpacing": 0.000560011,
  "DeviceSerialNumber": "167006",
  "DwellTime": 2.1e-06,
  "EchoTime": 0.037,
  "EchoTrainLength": 104,
  "EffectiveEchoSpacing": 0.000560011,
  "FlipAngle": 52,
  "HeudiconvVersion": "0.10.0",
  "ImageComments": "Unaliased MB4/PE3/LB",
  "ImageOrientationPatientDICOM": [0.998711, 0.0128923, 0.0490899, 0.000174335, 0.966324, -0.257328],
  "ImageOrientationText": "Tra>Cor(-14.9)>Sag(2.9)",
  "ImageType": [
    "ORIGINAL",
    "PRIMARY",
    "M",
    "MB",
    "ND",
    "MOSAIC"
],
  "ImagingFrequency": 123.259,
  "InPlanePhaseEncodingDirectionDICOM": "COL",
  "InstitutionAddress": "Chemin Queen-Mary 4565,Montreal,District,CA,H3W 1W5",
  "InstitutionName": "IUGM",
  "InstitutionalDepartmentName": "Department",
  "MRAcquisitionType": "2D",
  "MagneticFieldStrength": 3,
  "Manufacturer": "Siemens",
  "ManufacturersModelName": "Prisma_fit",
  "MatrixCoilMode": "SENSE",
  "Modality": "MR",
  "MultibandAccelerationFactor": 4,
  "PartialFourier": 1,
  "PatientPosition": "HFS",
  "PercentPhaseFOV": 100,
  "PercentSampling": 100,
  "PhaseEncodingDirection": "j",
  "PhaseEncodingSteps": 104,
  "PhaseResolution": 1,
  "PixelBandwidth": 2290,
  "ProcedureStepDescription": "localizers^fLoc",
  "ProtocolName": "task_fLoc_run-2",
  "PulseSequenceDetails": "%CustomerSeq%\\cmrr_mbep2d_bold",
  "ReceiveCoilActiveElements": "HC1-7;NC1,2",
  "ReceiveCoilName": "HeadNeck_64",
  "ReconMatrixPE": 104,
  "RepetitionTime": 1.49,
  "SAR": 0.0627275,
  "ScanOptions": "FS",
  "ScanningSequence": "EP",
  "SequenceName": "epfid2d1_104",
  "SequenceVariant": "SK\\SS",
  "SeriesDescription": "task_fLoc_run-2",
  "SeriesNumber": 13,
  "ShimSetting": [642, -7209, -8792, 730, 62, 13, 27, -22],
  "SliceThickness": 2,
  "SliceTiming": [0, 0.7825, 0.0975, 0.8825, 0.195, 0.98, 0.2925, 1.0775, 0.3925, 1.175, 0.49, 1.2725, 0.5875, 1.3725, 0.685, 0, 0.7825, 0.0975, 0.8825, 0.195, 0.98, 0.2925, 1.0775, 0.3925, 1.175, 0.49, 1.2725, 0.5875, 1.3725, 0.685, 0, 0.7825, 0.0975, 0.8825, 0.195, 0.98, 0.2925, 1.0775, 0.3925, 1.175, 0.49, 1.2725, 0.5875, 1.3725, 0.685, 0, 0.7825, 0.0975, 0.8825, 0.195, 0.98, 0.2925, 1.0775, 0.3925, 1.175, 0.49, 1.2725, 0.5875, 1.3725, 0.685],
  "SoftwareVersions": "syngo MR E11",
  "SpacingBetweenSlices": 2,
  "StationName": "MRC35049",
  "TaskName": "fLoc",
  "TotalReadoutTime": 0.0576811,
  "TxRefAmp": 256.061,
  "WipMemBlock": "4a0228e8-93b6-460a-a1c4-0ef0860bb539||Sequence: R016 ve11c/master r/e634e98; Dec 19 2017 11:00:25 by eja",
  "dcmmeta_affine": [
    [-1.9974223375320435, 0.00034867034992203116, 0.10150865465402603, 106.410888671875],
    [-0.025784531608223915, 1.9326481819152832, -0.5140098929405212, -73.3249740600586],
    [0.09817986935377121, 0.514656126499176, 1.9301527738571167, -67.80039978027344],
    [0.0, 0.0, 0.0, 1.0]
],
  "dcmmeta_reorient_transform": [
    [0.0, -1.0, 0.0, 103.0],
    [1.0, 0.0, 0.0, 0.0],
    [0.0, 0.0, 1.0, 0.0],
    [0.0, 0.0, 0.0, 1.0]
],
  "dcmmeta_shape": [104, 104, 60, 155],
  "dcmmeta_slice_dim": 2,
  "dcmmeta_version": 0.6,
  "global": {
    "const": {
      "AcquisitionMatrix": [104, 0, 0, 104],
      "AngioFlag": "N",
      "BitsAllocated": 16,
      "BitsStored": 16,
      "BodyPartExamined": "BRAIN",
      "Columns": 832,
      "EchoNumbers": 1,
      "EchoTime": 37.0,
      "EchoTrainLength": 104,
      "FlipAngle": 52.0,
      "HighBit": 15,
      "ImageOrientationPatient": [0.99871115335762, 0.01289226587666, 0.04908993419891, 0.00017433518136, 0.9663240859967, -0.2573280599349],
      "ImagePositionPatient": [-833.63543365018, -838.60728912143, 136.80653455281],
      "ImageType": [
        "ORIGINAL",
        "PRIMARY",
        "M",
        "MB",
        "ND",
        "MOSAIC"
],
      "ImagedNucleus": "1H",
      "ImagingFrequency": 123.259116,
      "InPlanePhaseEncodingDirection": "COL",
      "MRAcquisitionType": "2D",
      "MagneticFieldStrength": 3.0,
      "Manufacturer": "SIEMENS",
      "ManufacturerModelName": "Prisma_fit",
      "Modality": "MR",
      "NumberOfAverages": 1.0,
      "NumberOfPhaseEncodingSteps": 104,
      "PercentPhaseFieldOfView": 100.0,
      "PercentSampling": 100.0,
      "PerformedProcedureStepStartTime": "140041.366000",
      "PhotometricInterpretation": "MONOCHROME2",
      "PixelBandwidth": 2290.0,
      "PixelRepresentation": 0,
      "PixelSpacing": [2.0, 2.0],
      "ProtocolName": "task_fLoc_run-2",
      "RepetitionTime": 1490.0,
      "Rows": 832,
      "SAR": 0.06272753719979,
      "SamplesPerPixel": 1,
      "ScanOptions": "FS",
      "ScanningSequence": "EP",
      "SequenceName": "epfid2d1_104",
      "SequenceVariant": [
        "SK",
        "SS"
],
      "SeriesDescription": "task_fLoc_run-2",
      "SeriesNumber": 13,
      "SeriesTime": "141052.106000",
      "SliceLocation": -41.186871136721,
      "SliceThickness": 2.0,
      "SmallestImagePixelValue": 0,
      "SoftwareVersions": "syngo MR E11",
      "SpacingBetweenSlices": 1.9999999728187,
      "SpecificCharacterSet": "ISO_IR 100",
      "StudyID": "1",
      "StudyTime": "140041.286000",
      "TransmitCoilName": "Body",
      "VariableFlipAngleFlag": "N",
      "WindowCenterWidthExplanation": "Algo1",
      "dBdt": 0.0},
    "slices": {}
  },
  "time": {
    "samples": {
      "AcquisitionNumber": [1, 2, 3, 4, 5, 6, 7, 8, 9, 10, 11, 12, 13, 14, 15, 16, 17, 18, 19, 20, 21, 22, 23, 24, 25, 26, 27, 28, 29, 30, 31, 32, 33, 34, 35, 36, 37, 38, 39, 40, 41, 42, 43, 44, 45, 46, 47, 48, 49, 50, 51, 52, 53, 54, 55, 56, 57, 58, 59, 60, 61, 62, 63, 64, 65, 66, 67, 68, 69, 70, 71, 72, 73, 74, 75, 76, 77, 78, 79, 80, 81, 82, 83, 84, 85, 86, 87, 88, 89, 90, 91, 92, 93, 94, 95, 96, 97, 98, 99, 100, 101, 102, 103, 104, 105, 106, 107, 108, 109, 110, 111, 112, 113, 114, 115, 116, 117, 118, 119, 120, 121, 122, 123, 124, 125, 126, 127, 128, 129, 130, 131, 132, 133, 134, 135, 136, 137, 138, 139, 140, 141, 142, 143, 144, 145, 146, 147, 148, 149, 150, 151, 152, 153, 154, 155],
      "AcquisitionTime": ["140933.527500", "140935.017500", "140936.507500", "140937.997500", "140939.487500", "140940.977500", "140942.467500", "140943.957500", "140945.447500", "140946.937500", "140948.427500", "140949.917500", "140951.407500", "140952.897500", "140954.387500", "140955.877500", "140957.367500", "140958.857500", "141000.347500", "141001.837500", "141003.327500", "141004.817500", "141006.307500", "141007.797500", "141009.287500", "141010.777500", "141012.267500", "141013.757500", "141015.247500", "141016.737500", "141018.227500", "141019.717500", "141021.207500", "141022.697500", "141024.187500", "141025.677500", "141027.167500", "141028.657500", "141030.147500", "141031.637500", "141033.127500", "141034.617500", "141036.107500", "141037.597500", "141039.087500", "141040.577500", "141042.067500", "141043.557500", "141045.047500", "141046.537500", "141048.027500", "141049.517500", "141051.007500", "141052.497500", "141053.987500", "141055.477500", "141056.967500", "141058.457500", "141059.947500", "141101.437500", "141102.927500", "141104.417500", "141105.907500", "141107.397500", "141108.887500", "141110.377500", "141111.867500", "141113.357500", "141114.847500", "141116.337500", "141117.827500", "141119.317500", "141120.807500", "141122.297500", "141123.787500", "141125.277500", "141126.767500", "141128.257500", "141129.747500", "141131.237500", "141132.727500", "141134.217500", "141135.707500", "141137.197500", "141138.687500", "141140.177500", "141141.667500", "141143.157500", "141144.647500", "141146.137500", "141147.627500", "141149.117500", "141150.607500", "141152.097500", "141153.587500", "141155.077500", "141156.567500", "141158.057500", "141159.547500", "141201.037500", "141202.527500", "141204.017500", "141205.507500", "141206.997500", "141208.487500", "141209.977500", "141211.467500", "141212.957500", "141214.447500", "141215.937500", "141217.427500", "141218.917500", "141220.407500", "141221.897500", "141223.387500", "141224.877500", "141226.367500", "141227.857500", "141229.347500", "141230.837500", "141232.327500", "141233.817500", "141235.307500", "141236.797500", "141238.287500", "141239.777500", "141241.267500", "141242.757500", "141244.247500", "141245.737500", "141247.227500", "141248.717500", "141250.207500", "141251.697500", "141253.187500", "141254.677500", "141256.167500", "141257.657500", "141259.147500", "141300.637500", "141302.127500", "141303.617500", "141305.107500", "141306.597500", "141308.087500", "141309.577500", "141311.067500", "141312.557500", "141314.047500", "141315.537500", "141317.027500", "141318.517500", "141320.007500", "141321.497500", "141322.987500"],
      "ContentTime": ["141052.110000", "141052.113000", "141052.117000", "141052.120000", "141052.123000", "141052.126000", "141052.130000", "141052.133000", "141052.136000", "141052.139000", "141052.143000", "141052.146000", "141052.149000", "141052.153000", "141052.156000", "141052.159000", "141052.162000", "141052.166000", "141052.169000", "141052.172000", "141052.175000", "141052.179000", "141052.182000", "141052.185000", "141112.062000", "141112.066000", "141112.069000", "141112.072000", "141112.076000", "141112.079000", "141112.082000", "141112.085000", "141112.089000", "141112.092000", "141112.095000", "141112.098000", "141112.102000", "141112.105000", "141112.108000", "141112.111000", "141112.115000", "141112.118000", "141112.121000", "141112.124000", "141132.062000", "141132.066000", "141132.069000", "141132.072000", "141132.075000", "141132.079000", "141132.082000", "141132.085000", "141132.089000", "141132.092000", "141132.095000", "141132.098000", "141132.102000", "141132.105000", "141132.108000", "141132.111000", "141132.115000", "141132.118000", "141132.121000", "141132.124000", "141152.063000", "141152.066000", "141152.070000", "141152.073000", "141152.076000", "141152.079000", "141152.083000", "141152.086000", "141152.089000", "141152.093000", "141152.096000", "141152.099000", "141152.102000", "141152.106000", "141152.109000", "141152.112000", "141152.115000", "141152.119000", "141152.122000", "141152.125000", "141212.062000", "141212.066000", "141212.069000", "141212.072000", "141212.076000", "141212.079000", "141212.082000", "141212.086000", "141212.089000", "141212.092000", "141212.096000", "141212.099000", "141212.102000", "141212.106000", "141212.109000", "141212.112000", "141212.116000", "141212.119000", "141212.122000", "141212.125000", "141212.129000", "141252.063000", "141252.067000", "141252.070000", "141252.074000", "141252.077000", "141252.080000", "141252.084000", "141252.087000", "141252.090000", "141252.093000", "141252.098000", "141252.102000", "141252.105000", "141252.109000", "141252.112000", "141252.115000", "141252.119000", "141252.122000", "141252.125000", "141252.129000", "141252.132000", "141252.135000", "141252.139000", "141252.142000", "141252.145000", "141252.148000", "141252.152000", "141325.063000", "141325.067000", "141325.070000", "141325.073000", "141325.077000", "141325.080000", "141325.084000", "141325.087000", "141325.090000", "141325.093000", "141325.097000", "141325.100000", "141325.104000", "141325.107000", "141325.110000", "141325.113000", "141325.117000", "141325.120000", "141325.123000", "141325.127000", "141325.130000", "141325.134000", "141325.137000"],
      "InstanceCreationTime": ["141052.110000", "141052.113000", "141052.117000", "141052.120000", "141052.123000", "141052.126000", "141052.130000", "141052.133000", "141052.136000", "141052.139000", "141052.143000", "141052.146000", "141052.149000", "141052.153000", "141052.156000", "141052.159000", "141052.162000", "141052.166000", "141052.169000", "141052.172000", "141052.175000", "141052.179000", "141052.182000", "141052.185000", "141112.062000", "141112.066000", "141112.069000", "141112.072000", "141112.076000", "141112.079000", "141112.082000", "141112.085000", "141112.089000", "141112.092000", "141112.095000", "141112.098000", "141112.102000", "141112.105000", "141112.108000", "141112.111000", "141112.115000", "141112.118000", "141112.121000", "141112.124000", "141132.062000", "141132.066000", "141132.069000", "141132.072000", "141132.075000", "141132.079000", "141132.082000", "141132.085000", "141132.089000", "141132.092000", "141132.095000", "141132.098000", "141132.102000", "141132.105000", "141132.108000", "141132.111000", "141132.115000", "141132.118000", "141132.121000", "141132.124000", "141152.063000", "141152.066000", "141152.070000", "141152.073000", "141152.076000", "141152.079000", "141152.083000", "141152.086000", "141152.089000", "141152.093000", "141152.096000", "141152.099000", "141152.102000", "141152.106000", "141152.109000", "141152.112000", "141152.115000", "141152.119000", "141152.122000", "141152.125000", "141212.062000", "141212.066000", "141212.069000", "141212.072000", "141212.076000", "141212.079000", "141212.082000", "141212.086000", "141212.089000", "141212.092000", "141212.096000", "141212.099000", "141212.102000", "141212.106000", "141212.109000", "141212.112000", "141212.116000", "141212.119000", "141212.122000", "141212.125000", "141212.129000", "141252.063000", "141252.067000", "141252.070000", "141252.074000", "141252.077000", "141252.080000", "141252.084000", "141252.087000", "141252.090000", "141252.093000", "141252.098000", "141252.102000", "141252.105000", "141252.109000", "141252.112000", "141252.115000", "141252.119000", "141252.122000", "141252.125000", "141252.129000", "141252.132000", "141252.135000", "141252.139000", "141252.142000", "141252.145000", "141252.148000", "141252.152000", "141325.063000", "141325.067000", "141325.070000", "141325.073000", "141325.077000", "141325.080000", "141325.084000", "141325.087000", "141325.090000", "141325.093000", "141325.097000", "141325.100000", "141325.104000", "141325.107000", "141325.110000", "141325.113000", "141325.117000", "141325.120000", "141325.123000", "141325.127000", "141325.130000", "141325.134000", "141325.137000"],
      "InstanceNumber": [1, 2, 3, 4, 5, 6, 7, 8, 9, 10, 11, 12, 13, 14, 15, 16, 17, 18, 19, 20, 21, 22, 23, 24, 25, 26, 27, 28, 29, 30, 31, 32, 33, 34, 35, 36, 37, 38, 39, 40, 41, 42, 43, 44, 45, 46, 47, 48, 49, 50, 51, 52, 53, 54, 55, 56, 57, 58, 59, 60, 61, 62, 63, 64, 65, 66, 67, 68, 69, 70, 71, 72, 73, 74, 75, 76, 77, 78, 79, 80, 81, 82, 83, 84, 85, 86, 87, 88, 89, 90, 91, 92, 93, 94, 95, 96, 97, 98, 99, 100, 101, 102, 103, 104, 105, 106, 107, 108, 109, 110, 111, 112, 113, 114, 115, 116, 117, 118, 119, 120, 121, 122, 123, 124, 125, 126, 127, 128, 129, 130, 131, 132, 133, 134, 135, 136, 137, 138, 139, 140, 141, 142, 143, 144, 145, 146, 147, 148, 149, 150, 151, 152, 153, 154, 155],
      "LargestImagePixelValue": [39778, 38874, 38098, 37445, 38243, 37578, 37487, 37672, 37732, 37328, 37438, 37644, 37461, 37456, 37606, 37664, 37455, 36860, 37402, 37424, 37282, 37683, 37441, 37289, 36983, 37545, 37233, 36994, 37512, 37312, 37118, 36705, 37263, 37145, 37006, 36746, 36896, 37129, 37293, 37048, 37394, 37218, 37287, 37169, 36923, 37268, 37096, 37020, 37159, 37403, 37529, 37302, 37086, 36875, 37385, 37118, 37028, 36936, 37487, 37055, 37221, 36999, 37825, 37447, 36766, 36987, 36784, 37371, 37269, 37427, 37114, 36848, 37633, 37328, 37328, 37182, 36725, 37282, 37293, 36687, 36774, 36694, 37200, 37124, 37472, 37576, 37129, 37300, 37098, 36930, 37183, 37175, 36950, 36862, 37088, 36876, 37275, 37517, 37663, 37261, 37036, 36563, 37333, 37210, 37178, 37213, 37311, 37043, 37235, 37003, 37599, 37476, 37630, 37138, 36895, 36645, 37031, 37307, 37380, 37203, 37159, 37034, 36595, 36852, 37049, 37461, 37660, 37094, 37322, 37133, 37049, 37255, 37548, 37133, 37165, 37324, 37498, 37538, 37085, 37321, 37122, 36990, 36782, 37276, 36972, 37209, 37040, 37014, 37472, 37120, 37114, 36863, 37048, 36838, 38077],
      "WindowCenter": [10132.0, 10103.0, 10099.0, 10085.0, 10078.0, 10053.0, 10025.0, 10027.0, 10041.0, 10033.0, 10023.0, 10013.0, 10006.0, 10014.0, 10038.0, 10052.0, 10047.0, 10031.0, 10019.0, 10025.0, 10035.0, 10047.0, 10042.0, 10042.0, 10042.0, 10036.0, 10035.0, 10036.0, 10052.0, 10062.0, 10056.0, 10048.0, 10046.0, 10046.0, 10053.0, 10047.0, 10038.0, 10036.0, 10043.0, 10043.0, 10041.0, 10041.0, 10044.0, 10045.0, 10045.0, 10046.0, 10061.0, 10062.0, 10062.0, 10062.0, 10070.0, 10071.0, 10065.0, 10047.0, 10045.0, 10044.0, 10053.0, 10057.0, 10071.0, 10063.0, 10048.0, 10046.0, 10066.0, 10077.0, 10073.0, 10064.0, 10041.0, 10034.0, 10034.0, 10059.0, 10072.0, 10067.0, 10055.0, 10047.0, 10060.0, 10057.0, 10048.0, 10052.0, 10059.0, 10059.0, 10058.0, 10050.0, 10037.0, 10021.0, 10026.0, 10043.0, 10047.0, 10046.0, 10039.0, 10031.0, 10052.0, 10060.0, 10055.0, 10038.0, 10021.0, 10012.0, 10018.0, 10043.0, 10058.0, 10056.0, 10054.0, 10034.0, 10034.0, 10029.0, 10043.0, 10053.0, 10056.0, 10056.0, 10039.0, 10012.0, 10016.0, 10031.0, 10057.0, 10064.0, 10074.0, 10058.0, 10038.0, 10025.0, 10026.0, 10045.0, 10065.0, 10065.0, 10043.0, 10032.0, 10037.0, 10052.0, 10068.0, 10064.0, 10063.0, 10048.0, 10031.0, 10027.0, 10035.0, 10039.0, 10039.0, 10030.0, 10036.0, 10036.0, 10037.0, 10029.0, 10035.0, 10044.0, 10049.0, 10049.0, 10048.0, 10046.0, 10046.0, 10057.0, 10071.0, 10066.0, 10063.0, 10065.0, 10072.0, 10060.0, 10151.0],
      "WindowWidth": [21563.0, 21478.0, 21454.0, 21419.0, 21388.0, 21330.0, 21266.0, 21264.0, 21302.0, 21282.0, 21259.0, 21236.0, 21224.0, 21244.0, 21296.0, 21333.0, 21325.0, 21288.0, 21257.0, 21271.0, 21294.0, 21318.0, 21309.0, 21309.0, 21307.0, 21296.0, 21293.0, 21296.0, 21329.0, 21353.0, 21341.0, 21325.0, 21318.0, 21320.0, 21335.0, 21323.0, 21299.0, 21292.0, 21307.0, 21307.0, 21305.0, 21304.0, 21314.0, 21316.0, 21318.0, 21320.0, 21352.0, 21354.0, 21355.0, 21353.0, 21371.0, 21377.0, 21363.0, 21322.0, 21314.0, 21311.0, 21335.0, 21347.0, 21374.0, 21356.0, 21324.0, 21318.0, 21359.0, 21388.0, 21379.0, 21358.0, 21305.0, 21287.0, 21288.0, 21345.0, 21379.0, 21368.0, 21336.0, 21319.0, 21346.0, 21342.0, 21322.0, 21326.0, 21344.0, 21352.0, 21346.0, 21325.0, 21293.0, 21259.0, 21271.0, 21307.0, 21319.0, 21316.0, 21300.0, 21285.0, 21328.0, 21347.0, 21337.0, 21297.0, 21255.0, 21236.0, 21249.0, 21306.0, 21341.0, 21340.0, 21331.0, 21289.0, 21286.0, 21277.0, 21307.0, 21332.0, 21341.0, 21337.0, 21298.0, 21235.0, 21242.0, 21278.0, 21339.0, 21361.0, 21381.0, 21344.0, 21295.0, 21264.0, 21271.0, 21318.0, 21363.0, 21360.0, 21312.0, 21286.0, 21294.0, 21329.0, 21362.0, 21357.0, 21351.0, 21316.0, 21277.0, 21268.0, 21287.0, 21301.0, 21301.0, 21279.0, 21290.0, 21291.0, 21295.0, 21279.0, 21290.0, 21311.0, 21325.0, 21322.0, 21318.0, 21315.0, 21315.0, 21342.0, 21371.0, 21363.0, 21353.0, 21359.0, 21371.0, 21347.0, 21558.0]
    },
    "slices": {}
  }
}