{
  "AcquisitionMatrixPE": 104,
  "AcquisitionNumber": 1,
  "AcquisitionTime": "14:09:33.527500",
  "BandwidthPerPixelPhaseEncode": 17.17,
  "BaseResolution": 104,
  "BodyPartExamined": "BRAIN",
  "CoilCombinationMethod": "Sum of Squares",
  "ConsistencyInfo": "N4_VE11C_LATEST_20160120",
  "ConversionSoftware": "dcm2niix",
  "ConversionSoftwareVersion": "v1.0.20211006",
  "DerivedVendorReportedEchoSpacing": 0.000560011,
  "DeviceSerialNumber": "167006",
  "DwellTime": 2.1e-06,
  "EchoTime": 0.037,
  "EchoTime1": 0.037,
  "EchoTime2": 0.001,
  "EchoTrainLength": 104,
  "EffectiveEchoSpacing": 0.000560011,
  "FlipAngle": 52,
  "HeudiconvVersion": "0.10.0",
  "ImageComments": "Unaliased MB4/PE3/LB",
  "ImageOrientationPatientDICOM": [0.998711, 0.0128923, 0.0490899, 0.000174335, 0.966324, -0.257328],
  "ImageOrientationText": "Tra>Cor(-14.9)>Sag(2.9)",
  "ImageType": [
    "ORIGINAL",
    "PRIMARY",
    "P",
    "MB",
    "ND",
    "MOSAIC",
    "PHASE"
],
  "ImagingFrequency": 123.259,
  "InPlanePhaseEncodingDirectionDICOM": "COL",
  "InstitutionAddress": "Chemin Queen-Mary 4565,Montreal,District,CA,H3W 1W5",
  "InstitutionName": "IUGM",
  "InstitutionalDepartmentName": "Department",
  "MRAcquisitionType": "2D",
  "MagneticFieldStrength": 3,
  "Manufacturer": "Siemens",
  "ManufacturersModelName": "Prisma_fit",
  "MatrixCoilMode": "SENSE",
  "Modality": "MR",
  "MultibandAccelerationFactor": 4,
  "PartialFourier": 1,
  "PatientPosition": "HFS",
  "PercentPhaseFOV": 100,
  "PercentSampling": 100,
  "PhaseEncodingDirection": "j",
  "PhaseEncodingSteps": 104,
  "PhaseResolution": 1,
  "PixelBandwidth": 2290,
  "ProcedureStepDescription": "localizers^fLoc",
  "ProtocolName": "task_fLoc_run-2",
  "PulseSequenceDetails": "%CustomerSeq%\\cmrr_mbep2d_bold",
  "ReceiveCoilActiveElements": "HC1-7;NC1,2",
  "ReceiveCoilName": "HeadNeck_64",
  "ReconMatrixPE": 104,
  "RepetitionTime": 1.49,
  "SAR": 0.0627275,
  "ScanOptions": "FS",
  "ScanningSequence": "EP",
  "SequenceName": "epfid2d1_104",
  "SequenceVariant": "SK\\SS",
  "SeriesDescription": "task_fLoc_run-2",
  "SeriesNumber": 14,
  "ShimSetting": [642, -7209, -8792, 730, 62, 13, 27, -22],
  "SliceThickness": 2,
  "SliceTiming": [0, 0.7825, 0.0975, 0.8825, 0.195, 0.98, 0.2925, 1.0775, 0.3925, 1.175, 0.49, 1.2725, 0.5875, 1.3725, 0.685, 0, 0.7825, 0.0975, 0.8825, 0.195, 0.98, 0.2925, 1.0775, 0.3925, 1.175, 0.49, 1.2725, 0.5875, 1.3725, 0.685, 0, 0.7825, 0.0975, 0.8825, 0.195, 0.98, 0.2925, 1.0775, 0.3925, 1.175, 0.49, 1.2725, 0.5875, 1.3725, 0.685, 0, 0.7825, 0.0975, 0.8825, 0.195, 0.98, 0.2925, 1.0775, 0.3925, 1.175, 0.49, 1.2725, 0.5875, 1.3725, 0.685],
  "SoftwareVersions": "syngo MR E11",
  "SpacingBetweenSlices": 2,
  "StationName": "MRC35049",
  "TaskName": "fLoc",
  "TotalReadoutTime": 0.0576811,
  "TxRefAmp": 256.061,
  "WipMemBlock": "4a0228e8-93b6-460a-a1c4-0ef0860bb539||Sequence: R016 ve11c/master r/e634e98; Dec 19 2017 11:00:25 by eja",
  "dcmmeta_affine": [
    [-1.9974223375320435, 0.00034867034992203116, 0.10150865465402603, 106.410888671875],
    [-0.025784531608223915, 1.9326481819152832, -0.5140098929405212, -73.3249740600586],
    [0.09817986935377121, 0.514656126499176, 1.9301527738571167, -67.80039978027344],
    [0.0, 0.0, 0.0, 1.0]
],
  "dcmmeta_reorient_transform": [
    [0.0, -1.0, 0.0, 103.0],
    [1.0, 0.0, 0.0, 0.0],
    [0.0, 0.0, 1.0, 0.0],
    [0.0, 0.0, 0.0, 1.0]
],
  "dcmmeta_shape": [104, 104, 60, 155],
  "dcmmeta_slice_dim": 2,
  "dcmmeta_version": 0.6,
  "global": {
    "const": {
      "AcquisitionMatrix": [104, 0, 0, 104],
      "AngioFlag": "N",
      "BitsAllocated": 16,
      "BitsStored": 16,
      "BodyPartExamined": "BRAIN",
      "Columns": 832,
      "EchoNumbers": 1,
      "EchoTime": 37.0,
      "EchoTrainLength": 104,
      "FlipAngle": 52.0,
      "HighBit": 15,
      "ImageOrientationPatient": [0.99871115335762, 0.01289226587666, 0.04908993419891, 0.00017433518136, 0.9663240859967, -0.2573280599349],
      "ImagePositionPatient": [-833.63543365018, -838.60728912143, 136.80653455281],
      "ImageType": [
        "ORIGINAL",
        "PRIMARY",
        "P",
        "MB",
        "ND",
        "MOSAIC"
],
      "ImagedNucleus": "1H",
      "ImagingFrequency": 123.259116,
      "InPlanePhaseEncodingDirection": "COL",
      "LargestImagePixelValue": 4095,
      "MRAcquisitionType": "2D",
      "MagneticFieldStrength": 3.0,
      "Manufacturer": "SIEMENS",
      "ManufacturerModelName": "Prisma_fit",
      "Modality": "MR",
      "NumberOfAverages": 1.0,
      "NumberOfPhaseEncodingSteps": 104,
      "PercentPhaseFieldOfView": 100.0,
      "PercentSampling": 100.0,
      "PerformedProcedureStepStartTime": "140041.366000",
      "PhotometricInterpretation": "MONOCHROME2",
      "PixelBandwidth": 2290.0,
      "PixelRepresentation": 0,
      "PixelSpacing": [2.0, 2.0],
      "ProtocolName": "task_fLoc_run-2",
      "RepetitionTime": 1490.0,
      "RescaleIntercept": -4096.0,
      "RescaleSlope": 2.0,
      "RescaleType": "US",
      "Rows": 832,
      "SAR": 0.06272753719979,
      "SamplesPerPixel": 1,
      "ScanOptions": "FS",
      "ScanningSequence": "EP",
      "SequenceName": "epfid2d1_104",
      "SequenceVariant": [
        "SK",
        "SS"
],
      "SeriesDescription": "task_fLoc_run-2",
      "SeriesNumber": 14,
      "SeriesTime": "141052.229000",
      "SliceLocation": -41.186871136721,
      "SliceThickness": 2.0,
      "SmallestImagePixelValue": 0,
      "SoftwareVersions": "syngo MR E11",
      "SpacingBetweenSlices": 1.9999999728187,
      "SpecificCharacterSet": "ISO_IR 100",
      "StudyID": "1",
      "StudyTime": "140041.286000",
      "TransmitCoilName": "Body",
      "VariableFlipAngleFlag": "N",
      "WindowCenterWidthExplanation": "Algo1",
      "dBdt": 0.0},
    "slices": {}
  },
  "time": {
    "samples": {
      "AcquisitionNumber": [1, 2, 3, 4, 5, 6, 7, 8, 9, 10, 11, 12, 13, 14, 15, 16, 17, 18, 19, 20, 21, 22, 23, 24, 25, 26, 27, 28, 29, 30, 31, 32, 33, 34, 35, 36, 37, 38, 39, 40, 41, 42, 43, 44, 45, 46, 47, 48, 49, 50, 51, 52, 53, 54, 55, 56, 57, 58, 59, 60, 61, 62, 63, 64, 65, 66, 67, 68, 69, 70, 71, 72, 73, 74, 75, 76, 77, 78, 79, 80, 81, 82, 83, 84, 85, 86, 87, 88, 89, 90, 91, 92, 93, 94, 95, 96, 97, 98, 99, 100, 101, 102, 103, 104, 105, 106, 107, 108, 109, 110, 111, 112, 113, 114, 115, 116, 117, 118, 119, 120, 121, 122, 123, 124, 125, 126, 127, 128, 129, 130, 131, 132, 133, 134, 135, 136, 137, 138, 139, 140, 141, 142, 143, 144, 145, 146, 147, 148, 149, 150, 151, 152, 153, 154, 155],
      "AcquisitionTime": ["140933.527500", "140935.017500", "140936.507500", "140937.997500", "140939.487500", "140940.977500", "140942.467500", "140943.957500", "140945.447500", "140946.937500", "140948.427500", "140949.917500", "140951.407500", "140952.897500", "140954.387500", "140955.877500", "140957.367500", "140958.857500", "141000.347500", "141001.837500", "141003.327500", "141004.817500", "141006.307500", "141007.797500", "141009.287500", "141010.777500", "141012.267500", "141013.757500", "141015.247500", "141016.737500", "141018.227500", "141019.717500", "141021.207500", "141022.697500", "141024.187500", "141025.677500", "141027.167500", "141028.657500", "141030.147500", "141031.637500", "141033.127500", "141034.617500", "141036.107500", "141037.597500", "141039.087500", "141040.577500", "141042.067500", "141043.557500", "141045.047500", "141046.537500", "141048.027500", "141049.517500", "141051.007500", "141052.497500", "141053.987500", "141055.477500", "141056.967500", "141058.457500", "141059.947500", "141101.437500", "141102.927500", "141104.417500", "141105.907500", "141107.397500", "141108.887500", "141110.377500", "141111.867500", "141113.357500", "141114.847500", "141116.337500", "141117.827500", "141119.317500", "141120.807500", "141122.297500", "141123.787500", "141125.277500", "141126.767500", "141128.257500", "141129.747500", "141131.237500", "141132.727500", "141134.217500", "141135.707500", "141137.197500", "141138.687500", "141140.177500", "141141.667500", "141143.157500", "141144.647500", "141146.137500", "141147.627500", "141149.117500", "141150.607500", "141152.097500", "141153.587500", "141155.077500", "141156.567500", "141158.057500", "141159.547500", "141201.037500", "141202.527500", "141204.017500", "141205.507500", "141206.997500", "141208.487500", "141209.977500", "141211.467500", "141212.957500", "141214.447500", "141215.937500", "141217.427500", "141218.917500", "141220.407500", "141221.897500", "141223.387500", "141224.877500", "141226.367500", "141227.857500", "141229.347500", "141230.837500", "141232.327500", "141233.817500", "141235.307500", "141236.797500", "141238.287500", "141239.777500", "141241.267500", "141242.757500", "141244.247500", "141245.737500", "141247.227500", "141248.717500", "141250.207500", "141251.697500", "141253.187500", "141254.677500", "141256.167500", "141257.657500", "141259.147500", "141300.637500", "141302.127500", "141303.617500", "141305.107500", "141306.597500", "141308.087500", "141309.577500", "141311.067500", "141312.557500", "141314.047500", "141315.537500", "141317.027500", "141318.517500", "141320.007500", "141321.497500", "141322.987500"],
      "ContentTime": ["141052.231000", "141052.234000", "141052.237000", "141052.239000", "141052.242000", "141052.244000", "141052.246000", "141052.249000", "141052.251000", "141052.254000", "141052.256000", "141052.259000", "141052.261000", "141052.264000", "141052.266000", "141052.269000", "141052.271000", "141052.274000", "141052.276000", "141052.279000", "141052.281000", "141052.291000", "141052.293000", "141052.296000", "141112.166000", "141112.169000", "141112.171000", "141112.173000", "141112.176000", "141112.178000", "141112.181000", "141112.183000", "141112.186000", "141112.188000", "141112.197000", "141112.199000", "141112.202000", "141112.204000", "141112.207000", "141112.209000", "141112.212000", "141112.214000", "141112.217000", "141112.219000", "141132.165000", "141132.167000", "141132.170000", "141132.172000", "141132.175000", "141132.177000", "141132.180000", "141132.182000", "141132.185000", "141132.187000", "141132.189000", "141132.192000", "141132.199000", "141132.201000", "141132.204000", "141132.206000", "141132.209000", "141132.212000", "141132.214000", "141132.217000", "141152.176000", "141152.180000", "141152.184000", "141152.186000", "141152.189000", "141152.191000", "141152.194000", "141152.196000", "141152.199000", "141152.201000", "141152.204000", "141152.206000", "141152.209000", "141152.211000", "141152.214000", "141152.224000", "141152.226000", "141152.229000", "141152.231000", "141152.234000", "141212.180000", "141212.183000", "141212.185000", "141212.188000", "141212.190000", "141212.193000", "141212.195000", "141212.198000", "141212.200000", "141212.203000", "141212.205000", "141212.208000", "141212.210000", "141212.213000", "141212.215000", "141212.218000", "141212.220000", "141212.223000", "141212.225000", "141212.228000", "141212.230000", "141252.206000", "141252.208000", "141252.211000", "141252.214000", "141252.216000", "141252.219000", "141252.222000", "141252.225000", "141252.229000", "141252.232000", "141252.234000", "141252.237000", "141252.239000", "141252.242000", "141252.245000", "141252.247000", "141252.280000", "141252.282000", "141252.285000", "141252.287000", "141252.290000", "141252.292000", "141252.295000", "141252.297000", "141252.300000", "141252.302000", "141252.305000", "141325.224000", "141325.227000", "141325.229000", "141325.232000", "141325.234000", "141325.237000", "141325.240000", "141325.242000", "141325.245000", "141325.247000", "141325.250000", "141325.252000", "141325.255000", "141325.258000", "141325.260000", "141325.263000", "141325.265000", "141325.268000", "141325.270000", "141325.273000", "141325.275000", "141325.278000", "141325.281000"],
      "InstanceCreationTime": ["141052.231000", "141052.234000", "141052.237000", "141052.239000", "141052.242000", "141052.244000", "141052.246000", "141052.249000", "141052.251000", "141052.254000", "141052.256000", "141052.259000", "141052.261000", "141052.264000", "141052.266000", "141052.269000", "141052.271000", "141052.274000", "141052.276000", "141052.279000", "141052.281000", "141052.291000", "141052.293000", "141052.296000", "141112.166000", "141112.169000", "141112.171000", "141112.173000", "141112.176000", "141112.178000", "141112.181000", "141112.183000", "141112.186000", "141112.188000", "141112.197000", "141112.199000", "141112.202000", "141112.204000", "141112.207000", "141112.209000", "141112.212000", "141112.214000", "141112.217000", "141112.219000", "141132.165000", "141132.167000", "141132.170000", "141132.172000", "141132.175000", "141132.177000", "141132.180000", "141132.182000", "141132.185000", "141132.187000", "141132.189000", "141132.192000", "141132.199000", "141132.201000", "141132.204000", "141132.206000", "141132.209000", "141132.212000", "141132.214000", "141132.217000", "141152.176000", "141152.180000", "141152.184000", "141152.186000", "141152.189000", "141152.191000", "141152.194000", "141152.196000", "141152.199000", "141152.201000", "141152.204000", "141152.206000", "141152.209000", "141152.211000", "141152.214000", "141152.224000", "141152.226000", "141152.229000", "141152.231000", "141152.234000", "141212.180000", "141212.183000", "141212.185000", "141212.188000", "141212.190000", "141212.193000", "141212.195000", "141212.198000", "141212.200000", "141212.203000", "141212.205000", "141212.208000", "141212.210000", "141212.213000", "141212.215000", "141212.218000", "141212.220000", "141212.223000", "141212.225000", "141212.228000", "141212.230000", "141252.206000", "141252.208000", "141252.211000", "141252.214000", "141252.216000", "141252.219000", "141252.222000", "141252.225000", "141252.229000", "141252.232000", "141252.234000", "141252.237000", "141252.239000", "141252.242000", "141252.245000", "141252.247000", "141252.280000", "141252.282000", "141252.285000", "141252.287000", "141252.290000", "141252.292000", "141252.295000", "141252.297000", "141252.300000", "141252.302000", "141252.305000", "141325.224000", "141325.227000", "141325.229000", "141325.232000", "141325.234000", "141325.237000", "141325.240000", "141325.242000", "141325.245000", "141325.247000", "141325.250000", "141325.252000", "141325.255000", "141325.258000", "141325.260000", "141325.263000", "141325.265000", "141325.268000", "141325.270000", "141325.273000", "141325.275000", "141325.278000", "141325.281000"],
      "InstanceNumber": [1, 2, 3, 4, 5, 6, 7, 8, 9, 10, 11, 12, 13, 14, 15, 16, 17, 18, 19, 20, 21, 22, 23, 24, 25, 26, 27, 28, 29, 30, 31, 32, 33, 34, 35, 36, 37, 38, 39, 40, 41, 42, 43, 44, 45, 46, 47, 48, 49, 50, 51, 52, 53, 54, 55, 56, 57, 58, 59, 60, 61, 62, 63, 64, 65, 66, 67, 68, 69, 70, 71, 72, 73, 74, 75, 76, 77, 78, 79, 80, 81, 82, 83, 84, 85, 86, 87, 88, 89, 90, 91, 92, 93, 94, 95, 96, 97, 98, 99, 100, 101, 102, 103, 104, 105, 106, 107, 108, 109, 110, 111, 112, 113, 114, 115, 116, 117, 118, 119, 120, 121, 122, 123, 124, 125, 126, 127, 128, 129, 130, 131, 132, 133, 134, 135, 136, 137, 138, 139, 140, 141, 142, 143, 144, 145, 146, 147, 148, 149, 150, 151, 152, 153, 154, 155],
      "WindowCenter": [4838.0, 4838.0, 4836.0, 4832.0, 4838.0, 4830.0, 4842.0, 4838.0, 4832.0, 4808.0, 4836.0, 4840.0, 4840.0, 4836.0, 4836.0, 4840.0, 4838.0, 4838.0, 4834.0, 4836.0, 4836.0, 4836.0, 4838.0, 4836.0, 4838.0, 4840.0, 4836.0, 4836.0, 4838.0, 4838.0, 4834.0, 4834.0, 4838.0, 4830.0, 4836.0, 4840.0, 4840.0, 4838.0, 4842.0, 4834.0, 4838.0, 4836.0, 4834.0, 4836.0, 4838.0, 4838.0, 4836.0, 4834.0, 4836.0, 4836.0, 4840.0, 4836.0, 4840.0, 4836.0, 4840.0, 4836.0, 4842.0, 4836.0, 4838.0, 4834.0, 4840.0, 4836.0, 4834.0, 4836.0, 4836.0, 4836.0, 4838.0, 4834.0, 4838.0, 4838.0, 4838.0, 4838.0, 4840.0, 4836.0, 4834.0, 4838.0, 4836.0, 4838.0, 4838.0, 4840.0, 4836.0, 4834.0, 4834.0, 4838.0, 4838.0, 4838.0, 4840.0, 4840.0, 4838.0, 4836.0, 4836.0, 4836.0, 4840.0, 4840.0, 4836.0, 4836.0, 4836.0, 4836.0, 4840.0, 4838.0, 4838.0, 4838.0, 4836.0, 4836.0, 4836.0, 4834.0, 4838.0, 4836.0, 4838.0, 4838.0, 4840.0, 4836.0, 4838.0, 4834.0, 4836.0, 4836.0, 4834.0, 4836.0, 4838.0, 4838.0, 4838.0, 4838.0, 4840.0, 4834.0, 4836.0, 4838.0, 4838.0, 4840.0, 4838.0, 4838.0, 4838.0, 4838.0, 4838.0, 4834.0, 4840.0, 4836.0, 4840.0, 4836.0, 4836.0, 4838.0, 4836.0, 4836.0, 4836.0, 4840.0, 4836.0, 4840.0, 4838.0, 4836.0, 4836.0, 4838.0, 4836.0, 4836.0, 4836.0, 4836.0, 4862.0],
      "WindowWidth": [18588.0, 18582.0, 18582.0, 18580.0, 18582.0, 18580.0, 18576.0, 18580.0, 18582.0, 18550.0, 18588.0, 18582.0, 18582.0, 18578.0, 18582.0, 18582.0, 18578.0, 18580.0, 18578.0, 18578.0, 18576.0, 18582.0, 18582.0, 18584.0, 18584.0, 18584.0, 18574.0, 18582.0, 18588.0, 18582.0, 18580.0, 18580.0, 18580.0, 18574.0, 18580.0, 18586.0, 18582.0, 18580.0, 18584.0, 18580.0, 18578.0, 18582.0, 18576.0, 18578.0, 18584.0, 18580.0, 18584.0, 18578.0, 18578.0, 18584.0, 18586.0, 18578.0, 18580.0, 18578.0, 18586.0, 18580.0, 18582.0, 18586.0, 18580.0, 18580.0, 18586.0, 18588.0, 18580.0, 18584.0, 18586.0, 18580.0, 18586.0, 18578.0, 18586.0, 18582.0, 18588.0, 18580.0, 18584.0, 18578.0, 18578.0, 18582.0, 18586.0, 18578.0, 18586.0, 18582.0, 18584.0, 18580.0, 18580.0, 18578.0, 18586.0, 18582.0, 18586.0, 18580.0, 18578.0, 18580.0, 18584.0, 18586.0, 18586.0, 18580.0, 18582.0, 18582.0, 18582.0, 18584.0, 18578.0, 18584.0, 18582.0, 18576.0, 18580.0, 18580.0, 18580.0, 18582.0, 18580.0, 18586.0, 18582.0, 18582.0, 18584.0, 18580.0, 18582.0, 18578.0, 18576.0, 18586.0, 18570.0, 18584.0, 18582.0, 18584.0, 18578.0, 18582.0, 18586.0, 18576.0, 18578.0, 18584.0, 18584.0, 18584.0, 18584.0, 18582.0, 18578.0, 18584.0, 18582.0, 18582.0, 18580.0, 18588.0, 18582.0, 18582.0, 18582.0, 18582.0, 18576.0, 18586.0, 18578.0, 18582.0, 18582.0, 18582.0, 18586.0, 18580.0, 18580.0, 18580.0, 18582.0, 18582.0, 18580.0, 18582.0, 18612.0]
    },
    "slices": {}
  }
}