{
  "AcquisitionMatrixPE": 104,
  "AcquisitionNumber": 1,
  "AcquisitionTime": "14:04:29.337500",
  "BandwidthPerPixelPhaseEncode": 17.17,
  "BaseResolution": 104,
  "BodyPartExamined": "BRAIN",
  "CoilCombinationMethod": "Sum of Squares",
  "ConsistencyInfo": "N4_VE11C_LATEST_20160120",
  "ConversionSoftware": "dcm2niix",
  "ConversionSoftwareVersion": "v1.0.20211006",
  "DerivedVendorReportedEchoSpacing": 0.000560011,
  "DeviceSerialNumber": "167006",
  "DwellTime": 2.1e-06,
  "EchoTime": 0.037,
  "EchoTime1": 0.037,
  "EchoTime2": 0.001,
  "EchoTrainLength": 104,
  "EffectiveEchoSpacing": 0.000560011,
  "FlipAngle": 52,
  "HeudiconvVersion": "0.10.0",
  "ImageComments": "Unaliased MB4/PE3/LB",
  "ImageOrientationPatientDICOM": [0.998711, 0.0128923, 0.0490899, 0.000174335, 0.966324, -0.257328],
  "ImageOrientationText": "Tra>Cor(-14.9)>Sag(2.9)",
  "ImageType": [
    "ORIGINAL",
    "PRIMARY",
    "P",
    "MB",
    "ND",
    "MOSAIC",
    "PHASE"
],
  "ImagingFrequency": 123.259,
  "InPlanePhaseEncodingDirectionDICOM": "COL",
  "InstitutionAddress": "Chemin Queen-Mary 4565,Montreal,District,CA,H3W 1W5",
  "InstitutionName": "IUGM",
  "InstitutionalDepartmentName": "Department",
  "MRAcquisitionType": "2D",
  "MagneticFieldStrength": 3,
  "Manufacturer": "Siemens",
  "ManufacturersModelName": "Prisma_fit",
  "MatrixCoilMode": "SENSE",
  "Modality": "MR",
  "MultibandAccelerationFactor": 4,
  "PartialFourier": 1,
  "PatientPosition": "HFS",
  "PercentPhaseFOV": 100,
  "PercentSampling": 100,
  "PhaseEncodingDirection": "j",
  "PhaseEncodingSteps": 104,
  "PhaseResolution": 1,
  "PixelBandwidth": 2290,
  "ProcedureStepDescription": "localizers^fLoc",
  "ProtocolName": "task_fLoc_run-1",
  "PulseSequenceDetails": "%CustomerSeq%\\cmrr_mbep2d_bold",
  "ReceiveCoilActiveElements": "HC1-7;NC1,2",
  "ReceiveCoilName": "HeadNeck_64",
  "ReconMatrixPE": 104,
  "RepetitionTime": 1.49,
  "SAR": 0.0627275,
  "ScanOptions": "FS",
  "ScanningSequence": "EP",
  "SequenceName": "epfid2d1_104",
  "SequenceVariant": "SK\\SS",
  "SeriesDescription": "task_fLoc_run-1",
  "SeriesNumber": 11,
  "ShimSetting": [642, -7209, -8792, 730, 62, 13, 27, -22],
  "SliceThickness": 2,
  "SliceTiming": [0, 0.785, 0.1, 0.8825, 0.1975, 0.98, 0.295, 1.08, 0.3925, 1.1775, 0.49, 1.275, 0.59, 1.3725, 0.6875, 0, 0.785, 0.1, 0.8825, 0.1975, 0.98, 0.295, 1.08, 0.3925, 1.1775, 0.49, 1.275, 0.59, 1.3725, 0.6875, 0, 0.785, 0.1, 0.8825, 0.1975, 0.98, 0.295, 1.08, 0.3925, 1.1775, 0.49, 1.275, 0.59, 1.3725, 0.6875, 0, 0.785, 0.1, 0.8825, 0.1975, 0.98, 0.295, 1.08, 0.3925, 1.1775, 0.49, 1.275, 0.59, 1.3725, 0.6875],
  "SoftwareVersions": "syngo MR E11",
  "SpacingBetweenSlices": 2,
  "StationName": "MRC35049",
  "TaskName": "fLoc",
  "TotalReadoutTime": 0.0576811,
  "TxRefAmp": 256.061,
  "WipMemBlock": "a730a9df-36ce-45fe-b23c-5e141ac8b043||Sequence: R016 ve11c/master r/e634e98; Dec 19 2017 11:00:25 by eja",
  "dcmmeta_affine": [
    [-1.9974223375320435, 0.00034867034992203116, 0.10150865465402603, 106.410888671875],
    [-0.025784531608223915, 1.9326481819152832, -0.5140098929405212, -73.3249740600586],
    [0.09817986935377121, 0.514656126499176, 1.9301527738571167, -67.80039978027344],
    [0.0, 0.0, 0.0, 1.0]
],
  "dcmmeta_reorient_transform": [
    [0.0, -1.0, 0.0, 103.0],
    [1.0, 0.0, 0.0, 0.0],
    [0.0, 0.0, 1.0, 0.0],
    [0.0, 0.0, 0.0, 1.0]
],
  "dcmmeta_shape": [104, 104, 60, 155],
  "dcmmeta_slice_dim": 2,
  "dcmmeta_version": 0.6,
  "global": {
    "const": {
      "AcquisitionMatrix": [104, 0, 0, 104],
      "AngioFlag": "N",
      "BitsAllocated": 16,
      "BitsStored": 16,
      "BodyPartExamined": "BRAIN",
      "Columns": 832,
      "EchoNumbers": 1,
      "EchoTime": 37.0,
      "EchoTrainLength": 104,
      "FlipAngle": 52.0,
      "HighBit": 15,
      "ImageOrientationPatient": [0.99871115335762, 0.01289226587666, 0.04908993419891, 0.00017433518136, 0.9663240859967, -0.2573280599349],
      "ImagePositionPatient": [-833.63543365018, -838.60728912143, 136.80653455281],
      "ImageType": [
        "ORIGINAL",
        "PRIMARY",
        "P",
        "MB",
        "ND",
        "MOSAIC"
],
      "ImagedNucleus": "1H",
      "ImagingFrequency": 123.259113,
      "InPlanePhaseEncodingDirection": "COL",
      "LargestImagePixelValue": 4095,
      "MRAcquisitionType": "2D",
      "MagneticFieldStrength": 3.0,
      "Manufacturer": "SIEMENS",
      "ManufacturerModelName": "Prisma_fit",
      "Modality": "MR",
      "NumberOfAverages": 1.0,
      "NumberOfPhaseEncodingSteps": 104,
      "PercentPhaseFieldOfView": 100.0,
      "PercentSampling": 100.0,
      "PerformedProcedureStepStartTime": "140041.366000",
      "PhotometricInterpretation": "MONOCHROME2",
      "PixelBandwidth": 2290.0,
      "PixelRepresentation": 0,
      "PixelSpacing": [2.0, 2.0],
      "ProtocolName": "task_fLoc_run-1",
      "RepetitionTime": 1490.0,
      "RescaleIntercept": -4096.0,
      "RescaleSlope": 2.0,
      "RescaleType": "US",
      "Rows": 832,
      "SAR": 0.06272753719979,
      "SamplesPerPixel": 1,
      "ScanOptions": "FS",
      "ScanningSequence": "EP",
      "SequenceName": "epfid2d1_104",
      "SequenceVariant": [
        "SK",
        "SS"
],
      "SeriesDescription": "task_fLoc_run-1",
      "SeriesNumber": 11,
      "SeriesTime": "140600.912000",
      "SliceLocation": -41.186871136721,
      "SliceThickness": 2.0,
      "SmallestImagePixelValue": 0,
      "SoftwareVersions": "syngo MR E11",
      "SpacingBetweenSlices": 1.9999999728187,
      "SpecificCharacterSet": "ISO_IR 100",
      "StudyID": "1",
      "StudyTime": "140041.286000",
      "TransmitCoilName": "Body",
      "VariableFlipAngleFlag": "N",
      "WindowCenterWidthExplanation": "Algo1",
      "dBdt": 0.0},
    "slices": {}
  },
  "time": {
    "samples": {
      "AcquisitionNumber": [1, 2, 3, 4, 5, 6, 7, 8, 9, 10, 11, 12, 13, 14, 15, 16, 17, 18, 19, 20, 21, 22, 23, 24, 25, 26, 27, 28, 29, 30, 31, 32, 33, 34, 35, 36, 37, 38, 39, 40, 41, 42, 43, 44, 45, 46, 47, 48, 49, 50, 51, 52, 53, 54, 55, 56, 57, 58, 59, 60, 61, 62, 63, 64, 65, 66, 67, 68, 69, 70, 71, 72, 73, 74, 75, 76, 77, 78, 79, 80, 81, 82, 83, 84, 85, 86, 87, 88, 89, 90, 91, 92, 93, 94, 95, 96, 97, 98, 99, 100, 101, 102, 103, 104, 105, 106, 107, 108, 109, 110, 111, 112, 113, 114, 115, 116, 117, 118, 119, 120, 121, 122, 123, 124, 125, 126, 127, 128, 129, 130, 131, 132, 133, 134, 135, 136, 137, 138, 139, 140, 141, 142, 143, 144, 145, 146, 147, 148, 149, 150, 151, 152, 153, 154, 155],
      "AcquisitionTime": ["140429.337500", "140430.827500", "140432.317500", "140433.807500", "140435.297500", "140436.787500", "140438.277500", "140439.767500", "140441.257500", "140442.747500", "140444.237500", "140445.727500", "140447.217500", "140448.707500", "140450.197500", "140451.687500", "140453.177500", "140454.667500", "140456.157500", "140457.647500", "140459.137500", "140500.627500", "140502.117500", "140503.607500", "140505.097500", "140506.587500", "140508.077500", "140509.567500", "140511.057500", "140512.547500", "140514.037500", "140515.527500", "140517.017500", "140518.507500", "140519.997500", "140521.487500", "140522.977500", "140524.467500", "140525.957500", "140527.447500", "140528.937500", "140530.427500", "140531.917500", "140533.407500", "140534.897500", "140536.387500", "140537.877500", "140539.367500", "140540.857500", "140542.347500", "140543.837500", "140545.327500", "140546.817500", "140548.307500", "140549.797500", "140551.287500", "140552.777500", "140554.267500", "140555.757500", "140557.247500", "140558.737500", "140600.227500", "140601.717500", "140603.207500", "140604.697500", "140606.187500", "140607.677500", "140609.167500", "140610.657500", "140612.147500", "140613.637500", "140615.127500", "140616.617500", "140618.107500", "140619.597500", "140621.087500", "140622.577500", "140624.067500", "140625.557500", "140627.047500", "140628.537500", "140630.027500", "140631.517500", "140633.007500", "140634.497500", "140635.987500", "140637.477500", "140638.967500", "140640.457500", "140641.947500", "140643.437500", "140644.927500", "140646.417500", "140647.907500", "140649.397500", "140650.887500", "140652.377500", "140653.867500", "140655.357500", "140656.847500", "140658.337500", "140659.827500", "140701.317500", "140702.807500", "140704.297500", "140705.787500", "140707.277500", "140708.767500", "140710.257500", "140711.747500", "140713.237500", "140714.727500", "140716.217500", "140717.707500", "140719.197500", "140720.687500", "140722.177500", "140723.667500", "140725.157500", "140726.647500", "140728.137500", "140729.627500", "140731.117500", "140732.607500", "140734.097500", "140735.587500", "140737.077500", "140738.567500", "140740.057500", "140741.547500", "140743.037500", "140744.527500", "140746.017500", "140747.507500", "140748.997500", "140750.487500", "140751.977500", "140753.467500", "140754.957500", "140756.447500", "140757.937500", "140759.427500", "140800.917500", "140802.407500", "140803.897500", "140805.387500", "140806.877500", "140808.367500", "140809.857500", "140811.347500", "140812.837500", "140814.327500", "140815.817500", "140817.307500", "140818.797500"],
      "ContentTime": ["140600.914000", "140600.917000", "140600.919000", "140600.925000", "140600.928000", "140600.930000", "140600.933000", "140600.935000", "140600.938000", "140600.940000", "140600.943000", "140600.945000", "140600.947000", "140600.950000", "140600.952000", "140600.955000", "140600.957000", "140600.960000", "140600.962000", "140600.965000", "140600.967000", "140600.970000", "140600.972000", "140600.975000", "140600.977000", "140600.979000", "140600.982000", "140600.984000", "140600.987000", "140600.989000", "140600.992000", "140600.994000", "140600.997000", "140600.999000", "140601.002000", "140601.004000", "140601.007000", "140601.009000", "140601.012000", "140620.815000", "140620.817000", "140620.820000", "140620.822000", "140620.825000", "140620.827000", "140620.830000", "140620.832000", "140620.835000", "140620.837000", "140620.840000", "140620.842000", "140620.845000", "140620.847000", "140620.850000", "140620.852000", "140620.855000", "140620.857000", "140620.859000", "140620.862000", "140640.800000", "140640.802000", "140640.805000", "140640.807000", "140640.810000", "140640.812000", "140640.815000", "140640.817000", "140640.820000", "140640.822000", "140640.824000", "140640.827000", "140640.830000", "140640.832000", "140640.834000", "140640.837000", "140640.839000", "140640.842000", "140640.844000", "140640.847000", "140700.803000", "140700.805000", "140700.808000", "140700.810000", "140700.813000", "140700.815000", "140700.818000", "140700.820000", "140700.823000", "140700.825000", "140700.828000", "140700.830000", "140700.833000", "140700.835000", "140700.838000", "140700.840000", "140700.842000", "140700.845000", "140700.847000", "140700.850000", "140700.852000", "140720.772000", "140720.775000", "140720.777000", "140720.780000", "140720.782000", "140720.785000", "140720.787000", "140720.790000", "140720.793000", "140720.796000", "140720.799000", "140720.801000", "140720.803000", "140720.806000", "140800.831000", "140800.834000", "140800.836000", "140800.839000", "140800.841000", "140800.844000", "140800.846000", "140800.849000", "140800.851000", "140800.854000", "140800.856000", "140800.859000", "140800.861000", "140800.864000", "140800.866000", "140800.869000", "140800.871000", "140800.874000", "140800.876000", "140800.879000", "140800.881000", "140800.884000", "140800.886000", "140800.889000", "140800.891000", "140800.894000", "140800.896000", "140820.704000", "140820.707000", "140820.709000", "140820.712000", "140820.714000", "140820.717000", "140820.720000", "140820.723000", "140820.726000", "140820.728000", "140820.731000", "140820.733000", "140820.736000", "140820.739000"],
      "InstanceCreationTime": ["140600.914000", "140600.917000", "140600.919000", "140600.925000", "140600.928000", "140600.930000", "140600.933000", "140600.935000", "140600.938000", "140600.940000", "140600.943000", "140600.945000", "140600.947000", "140600.950000", "140600.952000", "140600.955000", "140600.957000", "140600.960000", "140600.962000", "140600.965000", "140600.967000", "140600.970000", "140600.972000", "140600.975000", "140600.977000", "140600.979000", "140600.982000", "140600.984000", "140600.987000", "140600.989000", "140600.992000", "140600.994000", "140600.997000", "140600.999000", "140601.002000", "140601.004000", "140601.007000", "140601.009000", "140601.012000", "140620.815000", "140620.817000", "140620.820000", "140620.822000", "140620.825000", "140620.827000", "140620.830000", "140620.832000", "140620.835000", "140620.837000", "140620.840000", "140620.842000", "140620.845000", "140620.847000", "140620.850000", "140620.852000", "140620.855000", "140620.857000", "140620.859000", "140620.862000", "140640.800000", "140640.802000", "140640.805000", "140640.807000", "140640.810000", "140640.812000", "140640.815000", "140640.817000", "140640.820000", "140640.822000", "140640.824000", "140640.827000", "140640.830000", "140640.832000", "140640.834000", "140640.837000", "140640.839000", "140640.842000", "140640.844000", "140640.847000", "140700.803000", "140700.805000", "140700.808000", "140700.810000", "140700.813000", "140700.815000", "140700.818000", "140700.820000", "140700.823000", "140700.825000", "140700.828000", "140700.830000", "140700.833000", "140700.835000", "140700.838000", "140700.840000", "140700.842000", "140700.845000", "140700.847000", "140700.850000", "140700.852000", "140720.772000", "140720.775000", "140720.777000", "140720.780000", "140720.782000", "140720.785000", "140720.787000", "140720.790000", "140720.793000", "140720.796000", "140720.799000", "140720.801000", "140720.803000", "140720.806000", "140800.831000", "140800.834000", "140800.836000", "140800.839000", "140800.841000", "140800.844000", "140800.846000", "140800.849000", "140800.851000", "140800.854000", "140800.856000", "140800.859000", "140800.861000", "140800.864000", "140800.866000", "140800.869000", "140800.871000", "140800.874000", "140800.876000", "140800.879000", "140800.881000", "140800.884000", "140800.886000", "140800.889000", "140800.891000", "140800.894000", "140800.896000", "140820.704000", "140820.707000", "140820.709000", "140820.712000", "140820.714000", "140820.717000", "140820.720000", "140820.723000", "140820.726000", "140820.728000", "140820.731000", "140820.733000", "140820.736000", "140820.739000"],
      "InstanceNumber": [1, 2, 3, 4, 5, 6, 7, 8, 9, 10, 11, 12, 13, 14, 15, 16, 17, 18, 19, 20, 21, 22, 23, 24, 25, 26, 27, 28, 29, 30, 31, 32, 33, 34, 35, 36, 37, 38, 39, 40, 41, 42, 43, 44, 45, 46, 47, 48, 49, 50, 51, 52, 53, 54, 55, 56, 57, 58, 59, 60, 61, 62, 63, 64, 65, 66, 67, 68, 69, 70, 71, 72, 73, 74, 75, 76, 77, 78, 79, 80, 81, 82, 83, 84, 85, 86, 87, 88, 89, 90, 91, 92, 93, 94, 95, 96, 97, 98, 99, 100, 101, 102, 103, 104, 105, 106, 107, 108, 109, 110, 111, 112, 113, 114, 115, 116, 117, 118, 119, 120, 121, 122, 123, 124, 125, 126, 127, 128, 129, 130, 131, 132, 133, 134, 135, 136, 137, 138, 139, 140, 141, 142, 143, 144, 145, 146, 147, 148, 149, 150, 151, 152, 153, 154, 155],
      "WindowCenter": [4836.0, 4840.0, 4840.0, 4836.0, 4842.0, 4840.0, 4842.0, 4836.0, 4840.0, 4838.0, 4836.0, 4840.0, 4840.0, 4840.0, 4838.0, 4842.0, 4840.0, 4840.0, 4840.0, 4840.0, 4862.0, 4840.0, 4840.0, 4838.0, 4836.0, 4838.0, 4838.0, 4838.0, 4838.0, 4864.0, 4842.0, 4840.0, 4838.0, 4862.0, 4838.0, 4840.0, 4840.0, 4838.0, 4844.0, 4862.0, 4862.0, 4862.0, 4836.0, 4842.0, 4840.0, 4842.0, 4836.0, 4838.0, 4840.0, 4864.0, 4864.0, 4864.0, 4838.0, 4842.0, 4836.0, 4842.0, 4864.0, 4842.0, 4840.0, 4862.0, 4838.0, 4864.0, 4838.0, 4862.0, 4838.0, 4840.0, 4864.0, 4842.0, 4840.0, 4838.0, 4840.0, 4864.0, 4840.0, 4840.0, 4860.0, 4866.0, 4864.0, 4838.0, 4838.0, 4842.0, 4838.0, 4842.0, 4842.0, 4836.0, 4838.0, 4842.0, 4836.0, 4840.0, 4862.0, 4840.0, 4838.0, 4842.0, 4842.0, 4862.0, 4862.0, 4842.0, 4842.0, 4840.0, 4864.0, 4838.0, 4842.0, 4840.0, 4840.0, 4844.0, 4864.0, 4840.0, 4840.0, 4838.0, 4838.0, 4864.0, 4838.0, 4840.0, 4838.0, 4862.0, 4864.0, 4840.0, 4840.0, 4840.0, 4862.0, 4838.0, 4840.0, 4840.0, 4860.0, 4840.0, 4864.0, 4842.0, 4864.0, 4840.0, 4860.0, 4836.0, 4864.0, 4840.0, 4864.0, 4862.0, 4862.0, 4862.0, 4838.0, 4862.0, 4842.0, 4836.0, 4838.0, 4862.0, 4862.0, 4838.0, 4864.0, 4840.0, 4836.0, 4864.0, 4840.0, 4838.0, 4840.0, 4862.0, 4866.0, 4840.0, 4842.0],
      "WindowWidth": [18580.0, 18574.0, 18582.0, 18576.0, 18582.0, 18582.0, 18584.0, 18582.0, 18580.0, 18580.0, 18580.0, 18580.0, 18584.0, 18584.0, 18578.0, 18584.0, 18576.0, 18582.0, 18582.0, 18586.0, 18608.0, 18580.0, 18582.0, 18582.0, 18578.0, 18580.0, 18578.0, 18576.0, 18576.0, 18612.0, 18580.0, 18586.0, 18578.0, 18610.0, 18582.0, 18574.0, 18582.0, 18578.0, 18586.0, 18606.0, 18608.0, 18606.0, 18582.0, 18578.0, 18582.0, 18584.0, 18578.0, 18576.0, 18584.0, 18612.0, 18616.0, 18608.0, 18578.0, 18580.0, 18578.0, 18584.0, 18608.0, 18582.0, 18580.0, 18616.0, 18582.0, 18612.0, 18578.0, 18612.0, 18574.0, 18580.0, 18610.0, 18580.0, 18584.0, 18580.0, 18578.0, 18610.0, 18574.0, 18580.0, 18610.0, 18614.0, 18606.0, 18582.0, 18576.0, 18588.0, 18580.0, 18582.0, 18576.0, 18576.0, 18580.0, 18578.0, 18576.0, 18580.0, 18608.0, 18580.0, 18578.0, 18584.0, 18578.0, 18608.0, 18608.0, 18576.0, 18578.0, 18582.0, 18610.0, 18574.0, 18580.0, 18576.0, 18576.0, 18580.0, 18612.0, 18580.0, 18578.0, 18574.0, 18576.0, 18604.0, 18586.0, 18580.0, 18580.0, 18606.0, 18612.0, 18584.0, 18580.0, 18578.0, 18612.0, 18576.0, 18578.0, 18582.0, 18608.0, 18578.0, 18608.0, 18582.0, 18610.0, 18584.0, 18604.0, 18578.0, 18608.0, 18576.0, 18608.0, 18610.0, 18608.0, 18608.0, 18578.0, 18606.0, 18582.0, 18574.0, 18580.0, 18610.0, 18610.0, 18582.0, 18608.0, 18574.0, 18574.0, 18608.0, 18582.0, 18578.0, 18584.0, 18606.0, 18600.0, 18574.0, 18580.0]
    },
    "slices": {}
  }
}